399.71998,1.45218
399.47889,1.44291
399.23781,1.43510
398.99672,1.42943
398.75564,1.42512
398.51455,1.42025
398.27347,1.41219
398.03238,1.39937
397.79129,1.38422
397.55021,1.37250
397.30912,1.36791
397.06804,1.36918
396.82695,1.37319
396.58587,1.37908
396.34478,1.38770
396.10369,1.39872
395.86261,1.41069
395.62152,1.42260
395.38044,1.43324
395.13935,1.44003
394.89827,1.44090
394.65718,1.43753
394.41610,1.43510
394.17501,1.43822
393.93392,1.44704
393.69284,1.45599
393.45175,1.45634
393.21067,1.44311
392.96958,1.42041
392.72850,1.39927
392.48741,1.38929
392.24632,1.39071
392.00524,1.39406
391.76415,1.38757
391.52307,1.36587
391.28198,1.33416
391.04090,1.30449
390.79981,1.28680
390.55872,1.28309
390.31764,1.28935
390.07655,1.30164
389.83547,1.31903
389.59438,1.34125
389.35330,1.36466
389.11221,1.38199
388.87113,1.38684
388.63004,1.37834
388.38895,1.36092
388.14787,1.34045
387.90678,1.32036
387.66570,1.30142
387.42461,1.28491
387.18353,1.27433
386.94244,1.27278
386.70135,1.27863
386.46027,1.28499
386.21918,1.28465
385.97810,1.27634
385.73701,1.26585
385.49593,1.26061
385.25484,1.26277
385.01376,1.26799
384.77267,1.26977
384.53158,1.26425
384.29050,1.25274
384.04941,1.24120
383.80833,1.23542
383.56724,1.23513
383.32616,1.23385
383.08507,1.22613
382.84398,1.21289
382.60290,1.19853
382.36181,1.18538
382.12073,1.17145
381.87964,1.15207
381.63856,1.12541
381.39747,1.09810
381.15639,1.08292
380.91530,1.08811
380.67421,1.10960
380.43313,1.13493
380.19204,1.15389
379.95096,1.16344
379.70987,1.16489
379.46879,1.16072
379.22770,1.15407
378.98661,1.14785
378.74553,1.14281
378.50444,1.13760
378.26336,1.13129
378.02227,1.12603
377.78119,1.12796
377.54010,1.14491
377.29902,1.18034
377.05793,1.22691
376.81684,1.26696
376.57576,1.28327
376.33467,1.27253
376.09359,1.24644
375.85250,1.21997
375.61142,1.20062
375.37033,1.18794
375.12924,1.18031
374.88816,1.17992
374.64707,1.18993
374.40599,1.20824
374.16490,1.22691
373.92382,1.23955
373.68273,1.24792
373.44164,1.25826
373.20056,1.27272
372.95947,1.28702
372.71839,1.29648
372.47730,1.30154
372.23622,1.30546
371.99513,1.30883
371.75405,1.30904
371.51296,1.30458
371.27187,1.29774
371.03079,1.29351
370.78970,1.29633
370.54862,1.30662
370.30753,1.31945
370.06645,1.32806
369.82536,1.32998
369.58427,1.32902
369.34319,1.33081
369.10210,1.33770
368.86102,1.34795
368.61993,1.35793
368.37885,1.36364
368.13776,1.36156
367.89668,1.35057
367.65559,1.33391
367.41450,1.31777
367.17342,1.30751
366.93233,1.30521
366.69125,1.30986
366.45016,1.31816
366.20908,1.32520
365.96799,1.32637
365.72690,1.31991
365.48582,1.30889
365.24473,1.30025
365.00365,1.29910
364.76256,1.30399
364.52148,1.30946
364.28039,1.31259
364.03931,1.31566
363.79822,1.32310
363.55713,1.33692
363.31605,1.35341
363.07496,1.36270
362.83388,1.35387
362.59279,1.32446
362.35171,1.28502
362.11062,1.25155
361.86953,1.23431
361.62845,1.23398
361.38736,1.24509
361.14628,1.26092
360.90519,1.27594
360.66411,1.28623
360.42302,1.28935
360.18194,1.28470
359.94085,1.27364
359.69976,1.25893
359.45868,1.24433
359.21759,1.23479
358.97651,1.23495
358.73542,1.24561
358.49434,1.26205
358.25325,1.27775
358.01216,1.28963
357.77108,1.29802
357.52999,1.30209
357.28891,1.29748
357.04782,1.28106
356.80674,1.25758
356.56565,1.23853
356.32457,1.23383
356.08348,1.24504
355.84239,1.26477
355.60131,1.28171
355.36022,1.28755
355.11914,1.28147
354.87805,1.26875
354.63697,1.25521
354.39588,1.24313
354.15479,1.23157
353.91371,1.21955
353.67262,1.20798
353.43154,1.19885
353.19045,1.19323
352.94937,1.19088
352.70828,1.19162
352.46719,1.19582
352.22611,1.20301
351.98502,1.21053
351.74394,1.21456
351.50285,1.21259
351.26177,1.20518
351.02068,1.19555
350.77960,1.18772
350.53851,1.18383
350.29742,1.18248
350.05634,1.18131
349.81525,1.18179
349.57417,1.18933
349.33308,1.20658
349.09200,1.22804
348.85091,1.24340
348.60982,1.24569
348.36874,1.23593
348.12765,1.22199
347.88657,1.21353
347.64548,1.21553
347.40440,1.22511
347.16331,1.23413
346.92223,1.23538
346.68114,1.22763
346.44005,1.21573
346.19897,1.20614
345.95788,1.20195
345.71680,1.20170
345.47571,1.20186
345.23463,1.20003
344.99354,1.19656
344.75245,1.19366
344.51137,1.19296
344.27028,1.19421
344.02920,1.19634
343.78811,1.19950
343.54703,1.20500
343.30594,1.21350
343.06486,1.22376
342.82377,1.23304
342.58268,1.23777
342.34160,1.23422
342.10051,1.22078
341.85943,1.20112
341.61834,1.18339
341.37726,1.17451
341.13617,1.17504
340.89508,1.17984
340.65400,1.18342
340.41291,1.18404
340.17183,1.18349
339.93074,1.18418
339.68966,1.18647
339.44857,1.18799
339.20749,1.18588
338.96640,1.18003
338.72531,1.17305
338.48423,1.16687
338.24314,1.16097
338.00206,1.15466
337.76097,1.14947
337.51989,1.14802
337.27880,1.15089
337.03771,1.15513
336.79663,1.15542
336.55554,1.14793
336.31446,1.13422
336.07337,1.12072
335.83229,1.11398
335.59120,1.11653
335.35012,1.12628
335.10903,1.13839
334.86794,1.14772
334.62686,1.15180
334.38577,1.15219
334.14469,1.15239
333.90360,1.15393
333.66252,1.15517
333.42143,1.15368
333.18034,1.14913
332.93926,1.14398
332.69817,1.14139
332.45709,1.14185
332.21600,1.14226
331.97492,1.13854
331.73383,1.12975
331.49274,1.11925
331.25166,1.11115
331.01057,1.10625
330.76949,1.10209
330.52840,1.09676
330.28732,1.09184
330.04623,1.09110
329.80515,1.09650
329.56406,1.10587
329.32297,1.11437
329.08189,1.11770
328.84080,1.11426
328.59972,1.10546
328.35863,1.09474
328.11755,1.08588
327.87646,1.08168
327.63537,1.08357
327.39429,1.09103
327.15320,1.10065
326.91212,1.10643
326.67103,1.10337
326.42995,1.09169
326.18886,1.07745
325.94778,1.06877
325.70669,1.07076
325.46560,1.08251
325.22452,1.09823
324.98343,1.11171
324.74235,1.12003
324.50126,1.12286
324.26018,1.11967
324.01909,1.10985
323.77800,1.09552
323.53692,1.08096
323.29583,1.06864
323.05475,1.05890
322.81366,1.05250
322.57258,1.05042
322.33149,1.05185
322.09041,1.05422
321.84932,1.05525
321.60823,1.05489
321.36715,1.05534
321.12606,1.05852
320.88498,1.06394
320.64389,1.06993
320.40281,1.07660
320.16172,1.08609
319.92063,1.09900
319.67955,1.11142
319.43846,1.11696
319.19738,1.11232
318.95629,1.10045
318.71521,1.08808
318.47412,1.08126
318.23304,1.08306
317.99195,1.09261
317.75086,1.10480
317.50978,1.11180
317.26869,1.10749
317.02761,1.09219
316.78652,1.07287
316.54544,1.05819
316.30435,1.05322
316.06326,1.05810
315.82218,1.06991
315.58109,1.08406
315.34001,1.09472
315.09892,1.09734
314.85784,1.09281
314.61675,1.08782
314.37566,1.08936
314.13458,1.09963
313.89349,1.11575
313.65241,1.13231
313.41132,1.14349
313.17024,1.14521
312.92915,1.13795
312.68807,1.12698
312.44698,1.11844
312.20589,1.11534
311.96481,1.11755
311.72372,1.12396
311.48264,1.13286
311.24155,1.14065
311.00047,1.14286
310.75938,1.13805
310.51829,1.12942
310.27721,1.12183
310.03612,1.11822
309.79504,1.11962
309.55395,1.12639
309.31287,1.13741
309.07178,1.14854
308.83070,1.15443
308.58961,1.15314
308.34852,1.14838
308.10744,1.14636
307.86635,1.15040
307.62527,1.15838
307.38418,1.16574
307.14310,1.17067
306.90201,1.17570
306.66092,1.18402
306.41984,1.19490
306.17875,1.20350
305.93767,1.20554
305.69658,1.20160
305.45550,1.19672
305.21441,1.19668
304.97333,1.20412
304.73224,1.21652
304.49115,1.22789
304.25007,1.23310
304.00898,1.23200
303.76790,1.22911
303.52681,1.22871
303.28573,1.23157
303.04464,1.23481
302.80355,1.23368
302.56247,1.22573
302.32138,1.21341
302.08030,1.20203
301.83921,1.19545
301.59813,1.19324
301.35704,1.19221
301.11596,1.18998
300.87487,1.18645
300.63378,1.18256
300.39270,1.17963
300.15161,1.18018
299.91053,1.18696
299.66944,1.19982
299.42836,1.21521
299.18727,1.22974
298.94618,1.24335
298.70510,1.25793
298.46401,1.27382
298.22293,1.28860
297.98184,1.29864
297.74076,1.30113
297.49967,1.29572
297.25859,1.28546
297.01750,1.27565
296.77641,1.27127
296.53533,1.27395
296.29424,1.28030
296.05316,1.28412
295.81207,1.28143
295.57099,1.27283
295.32990,1.26200
295.08881,1.25363
294.84773,1.25215
294.60664,1.25994
294.36556,1.27513
294.12447,1.29191
293.88339,1.30399
293.64230,1.30876
293.40121,1.30820
293.16013,1.30658
292.91904,1.30745
292.67796,1.31200
292.43687,1.31871
292.19579,1.32408
291.95470,1.32544
291.71362,1.32453
291.47253,1.32664
291.23144,1.33476
290.99036,1.34581
290.74927,1.35398
290.50819,1.35624
290.26710,1.35369
290.02602,1.34903
289.78493,1.34419
289.54384,1.33973
289.30276,1.33541
289.06167,1.33062
288.82059,1.32507
288.57950,1.31971
288.33842,1.31711
288.09733,1.32055
287.85625,1.33187
287.61516,1.34991
287.37407,1.37026
287.13299,1.38634
286.89190,1.39304
286.65082,1.39169
286.40973,1.38727
286.16865,1.38156
285.92756,1.37400
285.68647,1.36523
285.44539,1.35705
285.20430,1.35119
284.96322,1.34751
284.72213,1.34423
284.48105,1.34130
284.23996,1.34181
283.99888,1.34903
283.75779,1.36297
283.51670,1.37892
283.27562,1.38824
283.03453,1.38312
282.79345,1.36369
282.55236,1.34016
282.31128,1.32580
282.07019,1.32736
281.82910,1.34140
281.58802,1.35750
281.34693,1.36490
281.10585,1.35938
280.86476,1.34578
280.62368,1.33298
280.38259,1.32593
280.14151,1.32280
279.90042,1.31902
279.65933,1.31281
279.41825,1.30660
279.17716,1.30413
278.93608,1.30684
278.69499,1.31300
278.45391,1.31940
278.21282,1.32338
277.97173,1.32342
277.73065,1.31940
277.48956,1.31245
277.24848,1.30408
277.00739,1.29588
276.76631,1.28950
276.52522,1.28552
276.28414,1.28239
276.04305,1.27760
275.80196,1.27038
275.56088,1.26221
275.31979,1.25462
275.07871,1.24761
274.83762,1.24031
274.59654,1.23244
274.35545,1.22507
274.11436,1.21997
273.87328,1.21872
273.63219,1.22208
273.39111,1.22912
273.15002,1.23657
272.90894,1.24072
272.66785,1.24051
272.42676,1.23818
272.18568,1.23644
271.94459,1.23558
271.70351,1.23354
271.46242,1.22848
271.22134,1.22108
270.98025,1.21436
270.73917,1.21140
270.49808,1.21250
270.25699,1.21400
270.01591,1.21066
269.77482,1.20049
269.53374,1.18713
269.29265,1.17638
269.05157,1.17054
268.81048,1.16719
268.56939,1.16277
268.32831,1.15603
268.08722,1.14774
267.84614,1.13866
267.60505,1.12914
267.36397,1.11998
267.12288,1.11275
266.88180,1.10911
266.64071,1.10960
266.39962,1.11261
266.15854,1.11532
265.91745,1.11625
265.67637,1.11666
265.43528,1.11842
265.19420,1.12173
264.95311,1.12571
264.71202,1.13035
264.47094,1.13650
264.22985,1.14433
263.98877,1.15250
263.74768,1.15849
263.50660,1.16010
263.26551,1.15685
263.02443,1.14984
262.78334,1.14023
262.54225,1.12881
262.30117,1.11756
262.06008,1.11001
261.81900,1.10855
261.57791,1.11180
261.33683,1.11574
261.09574,1.11734
260.85465,1.11666
260.61357,1.11538
260.37248,1.11487
260.13140,1.11631
259.89031,1.12126
259.64923,1.13056
259.40814,1.14254
259.16706,1.15350
258.92597,1.16002
258.68488,1.16083
258.44380,1.15677
258.20271,1.15014
257.96163,1.14376
257.72054,1.13966
257.47946,1.13806
257.23837,1.13760
256.99728,1.13665
256.75620,1.13432
256.51511,1.13055
256.27403,1.12601
256.03294,1.12215
255.79186,1.12094
255.55077,1.12348
255.30968,1.12886
255.06860,1.13426
254.82751,1.13666
254.58643,1.13479
254.34534,1.13004
254.10426,1.12525
253.86317,1.12208
253.62209,1.11980
253.38100,1.11719
253.13991,1.11423
252.89883,1.11131
252.65774,1.10858
252.41666,1.10652
252.17557,1.10594
251.93449,1.10663
251.69340,1.10652
251.45231,1.10347
251.21123,1.09827
250.97014,1.09492
250.72906,1.09634
250.48797,1.10042
250.24689,1.10162
250.00580,1.09623
249.76472,1.08513
249.52363,1.07225
249.28254,1.06195
249.04146,1.05713
248.80037,1.05775
248.55929,1.06037
248.31820,1.05982
248.07712,1.05249
247.83603,1.03894
247.59494,1.02371
247.35386,1.01187
247.11277,1.00554
246.87169,1.00332
246.63060,1.00280
246.38952,1.00286
246.14843,1.00378
245.90735,1.00556
245.66626,1.00678
245.42517,1.00520
245.18409,0.99954
244.94300,0.99076
244.70192,0.98154
244.46083,0.97435
244.21975,0.96990
243.97866,0.96731
243.73757,0.96539
243.49649,0.96369
243.25540,0.96220
243.01432,0.96028
242.77323,0.95626
242.53215,0.94902
242.29106,0.93975
242.04998,0.93178
241.80889,0.92824
241.56780,0.92952
241.32672,0.93310
241.08563,0.93565
240.84455,0.93548
240.60346,0.93305
240.36238,0.92969
240.12129,0.92663
239.88020,0.92497
239.63912,0.92540
239.39803,0.92741
239.15695,0.92925
238.91586,0.92940
238.67478,0.92783
238.43369,0.92558
238.19261,0.92341
237.95152,0.92134
237.71043,0.91940
237.46935,0.91799
237.22826,0.91725
236.98718,0.91654
236.74609,0.91529
236.50501,0.91417
236.26392,0.91460
236.02283,0.91704
235.78175,0.92062
235.54066,0.92438
235.29958,0.92802
235.05849,0.93122
234.81741,0.93300
234.57632,0.93280
234.33523,0.93193
234.09415,0.93266
233.85306,0.93551
233.61198,0.93827
233.37089,0.93845
233.12981,0.93687
232.88872,0.93754
232.64764,0.94372
232.40655,0.95420
232.16546,0.96358
231.92438,0.96639
231.68329,0.96178
231.44221,0.95449
231.20112,0.95093
230.96004,0.95413
230.71895,0.96196
230.47786,0.96955
230.23678,0.97303
229.99569,0.97123
229.75461,0.96497
229.51352,0.95605
229.27244,0.94738
229.03135,0.94306
228.79027,0.94693
228.54918,0.96009
228.30809,0.97906
228.06701,0.99630
227.82592,1.00435
227.58484,1.00154
227.34375,0.99288
227.10267,0.98452
226.86158,0.97863
226.62049,0.97344
226.37941,0.96647
226.13832,0.95716
225.89724,0.94725
225.65615,0.93929
225.41507,0.93471
225.17398,0.93354
224.93290,0.93524
224.69181,0.93915
224.45072,0.94389
224.20964,0.94710
223.96855,0.94660
223.72747,0.94190
223.48638,0.93434
223.24530,0.92633
223.00421,0.92038
222.76312,0.91837
222.52204,0.92080
222.28095,0.92640
222.03987,0.93230
221.79878,0.93485
221.55770,0.93163
221.31661,0.92328
221.07553,0.91338
220.83444,0.90610
220.59335,0.90368
220.35227,0.90548
220.11118,0.90867
219.87010,0.90987
219.62901,0.90709
219.38793,0.90073
219.14684,0.89303
218.90575,0.88664
218.66467,0.88334
218.42358,0.88329
218.18250,0.88495
217.94141,0.88586
217.70033,0.88406
217.45924,0.87917
217.21816,0.87220
216.97707,0.86462
216.73598,0.85771
216.49490,0.85239
216.25381,0.84929
216.01273,0.84860
215.77164,0.84994
215.53056,0.85232
215.28947,0.85466
215.04838,0.85628
214.80730,0.85701
214.56621,0.85693
214.32513,0.85681
214.08404,0.85799
213.84296,0.86102
213.60187,0.86453
213.36078,0.86610
213.11970,0.86441
212.87861,0.85983
212.63753,0.85338
212.39644,0.84592
212.15536,0.83842
211.91427,0.83216
211.67319,0.82825
211.43210,0.82682
211.19101,0.82667
210.94993,0.82603
210.70884,0.82414
210.46776,0.82176
210.22667,0.81983
209.98559,0.81793
209.74450,0.81479
209.50341,0.81014
209.26233,0.80561
209.02124,0.80363
208.78016,0.80535
208.53907,0.80948
208.29799,0.81308
208.05690,0.81384
207.81582,0.81172
207.57473,0.80840
207.33364,0.80531
207.09256,0.80266
206.85147,0.80014
206.61039,0.79779
206.36930,0.79577
206.12822,0.79387
205.88713,0.79166
205.64604,0.78921
205.40496,0.78689
205.16387,0.78472
204.92279,0.78223
204.68170,0.77918
204.44062,0.77618
204.19953,0.77444
203.95845,0.77523
203.71736,0.77997
203.47627,0.79016
203.23519,0.80559
202.99410,0.82136
202.75302,0.82813
202.51193,0.81918
202.27085,0.79798
202.02976,0.77478
201.78867,0.75748
201.54759,0.74810
201.30650,0.74475
201.06542,0.74475
200.82433,0.74613
200.58325,0.74778
200.34216,0.74910
200.10108,0.74977
199.85999,0.74966
199.61890,0.74862
199.37782,0.74664
199.13673,0.74453
198.89565,0.74397
198.65456,0.74630
198.41348,0.75139
198.17239,0.75778
197.93130,0.76377
197.69022,0.76795
197.44913,0.76937
197.20805,0.76813
196.96696,0.76558
196.72588,0.76341
196.48479,0.76265
196.24370,0.76347
196.00262,0.76541
195.76153,0.76776
195.52045,0.77011
195.27936,0.77240
195.03828,0.77452
194.79719,0.77641
194.55611,0.77859
194.31502,0.78164
194.07393,0.78464
193.83285,0.78521
193.59176,0.78176
193.35068,0.77512
193.10959,0.76783
192.86851,0.76248
192.62742,0.76068
192.38633,0.76247
192.14525,0.76615
191.90416,0.76944
191.66308,0.77105
191.42199,0.77108
191.18091,0.76996
190.93982,0.76814
190.69874,0.76666
190.45765,0.76678
190.21656,0.76855
189.97548,0.77044
189.73439,0.77090
189.49331,0.76985
189.25222,0.76856
189.01114,0.76862
188.77005,0.77059
188.52896,0.77312
188.28788,0.77383
188.04679,0.77138
187.80571,0.76675
187.56462,0.76203
187.32354,0.75835
187.08245,0.75546
186.84137,0.75271
186.60028,0.74991
186.35919,0.74724
186.11811,0.74482
185.87702,0.74217
185.63594,0.73840
185.39485,0.73334
185.15377,0.72862
184.91268,0.72692
184.67159,0.72929
184.43051,0.73327
184.18942,0.73406
183.94834,0.72830
183.70725,0.71723
183.46617,0.70607
183.22508,0.70041
182.98400,0.70235
182.74291,0.70927
182.50182,0.71584
182.26074,0.71796
182.01965,0.71529
181.77857,0.71075
181.53748,0.70783
181.29640,0.70831
181.05531,0.71166
180.81422,0.71578
180.57314,0.71832
180.33205,0.71800
180.09097,0.71555
179.84988,0.71352
179.60880,0.71419
179.36771,0.71722
179.12663,0.71965
178.88554,0.71878
178.64445,0.71497
178.40337,0.71139
178.16228,0.71113
177.92120,0.71470
177.68011,0.71984
177.43903,0.72351
177.19794,0.72417
176.95685,0.72248
176.71577,0.72020
176.47468,0.71847
176.23360,0.71700
175.99251,0.71473
175.75143,0.71123
175.51034,0.70703
175.26925,0.70299
175.02817,0.69963
174.78708,0.69721
174.54600,0.69592
174.30491,0.69591
174.06383,0.69725
173.82274,0.69957
173.58166,0.70166
173.34057,0.70192
173.09948,0.69935
172.85840,0.69438
172.61731,0.68878
172.37623,0.68452
172.13514,0.68246
171.89406,0.68198
171.65297,0.68200
171.41188,0.68198
171.17080,0.68200
170.92971,0.68234
170.68863,0.68294
170.44754,0.68322
170.20646,0.68267
169.96537,0.68146
169.72429,0.67991
169.48320,0.67758
169.24211,0.67379
169.00103,0.66888
168.75994,0.66408
168.51886,0.66000
168.27777,0.65589
168.03669,0.65080
167.79560,0.64503
167.55451,0.64035
167.31343,0.63879
167.07234,0.64118
166.83126,0.64671
166.59017,0.65388
166.34909,0.66138
166.10800,0.66817
165.86692,0.67334
165.62583,0.67622
165.38474,0.67653
165.14366,0.67425
164.90257,0.66997
164.66149,0.66540
164.42040,0.66274
164.17932,0.66309
163.93823,0.66557
163.69714,0.66832
163.45606,0.67008
163.21497,0.67082
162.97389,0.67104
162.73280,0.67096
162.49172,0.67053
162.25063,0.66997
162.00955,0.67005
161.76846,0.67145
161.52737,0.67405
161.28629,0.67702
161.04520,0.67957
160.80412,0.68151
160.56303,0.68313
160.32195,0.68488
160.08086,0.68691
159.83977,0.68899
159.59869,0.69048
159.35760,0.69067
159.11652,0.68917
158.87543,0.68646
158.63435,0.68381
158.39326,0.68235
158.15218,0.68205
157.91109,0.68187
157.67000,0.68094
157.42892,0.67946
157.18783,0.67811
156.94675,0.67726
156.70566,0.67681
156.46458,0.67618
156.22349,0.67442
155.98240,0.67088
155.74132,0.66652
155.50023,0.66350
155.25915,0.66320
155.01806,0.66463
154.77698,0.66527
154.53589,0.66335
154.29480,0.65929
154.05372,0.65489
153.81263,0.65106
153.57155,0.64698
153.33046,0.64155
153.08938,0.63505
152.84829,0.62842
152.60721,0.62190
152.36612,0.61524
152.12503,0.60896
151.88395,0.60433
151.64286,0.60243
151.40178,0.60360
151.16069,0.60741
150.91961,0.61249
150.67852,0.61637
150.43743,0.61638
150.19635,0.61185
149.95526,0.60488
149.71418,0.59826
149.47309,0.59322
149.23201,0.58938
148.99092,0.58609
148.74984,0.58311
148.50875,0.58021
148.26766,0.57697
148.02658,0.57329
147.78549,0.56968
147.54441,0.56674
147.30332,0.56448
147.06224,0.56244
146.82115,0.56036
146.58006,0.55862
146.33898,0.55792
146.09789,0.55841
145.85681,0.55926
145.61572,0.55918
145.37464,0.55762
145.13355,0.55538
144.89247,0.55389
144.65138,0.55406
144.41029,0.55557
144.16921,0.55713
143.92812,0.55752
143.68704,0.55662
143.44595,0.55535
143.20487,0.55431
142.96378,0.55296
142.72269,0.55058
142.48161,0.54769
142.24052,0.54592
141.99944,0.54635
141.75835,0.54821
141.51727,0.54948
141.27618,0.54852
141.03510,0.54506
140.79401,0.54011
140.55292,0.53530
140.31184,0.53173
140.07075,0.52926
139.82967,0.52706
139.58858,0.52475
139.34750,0.52236
139.10641,0.51942
138.86532,0.51529
138.62424,0.51059
138.38315,0.50725
138.14207,0.50652
137.90098,0.50759
137.65990,0.50854
137.41881,0.50808
137.17772,0.50623
136.93664,0.50356
136.69555,0.50048
136.45447,0.49714
136.21338,0.49377
135.97230,0.49095
135.73121,0.48954
135.49013,0.49026
135.24904,0.49284
135.00795,0.49568
134.76687,0.49677
134.52578,0.49519
134.28470,0.49145
134.04361,0.48653
133.80253,0.48113
133.56144,0.47597
133.32035,0.47188
133.07927,0.46922
132.83818,0.46725
132.59710,0.46474
132.35601,0.46102
132.11493,0.45642
131.87384,0.45163
131.63276,0.44698
131.39167,0.44245
131.15058,0.43828
130.90950,0.43528
130.66841,0.43427
130.42733,0.43484
130.18624,0.43531
129.94516,0.43421
129.70407,0.43159
129.46298,0.42865
129.22190,0.42611
128.98081,0.42357
128.73973,0.42037
128.49864,0.41686
128.25756,0.41450
128.01647,0.41473
127.77539,0.41783
127.53430,0.42262
127.29321,0.42719
127.05213,0.42993
126.81104,0.43021
126.56996,0.42849
126.32887,0.42561
126.08779,0.42228
125.84670,0.41931
125.60561,0.41789
125.36453,0.41901
125.12344,0.42255
124.88236,0.42706
124.64127,0.43060
124.40019,0.43188
124.15910,0.43087
123.91802,0.42867
123.67693,0.42690
123.43584,0.42725
123.19476,0.43103
122.95367,0.43850
122.71259,0.44797
122.47150,0.45601
122.23042,0.45923
121.98933,0.45649
121.74824,0.44980
121.50716,0.44297
121.26607,0.43899
121.02499,0.43847
120.78390,0.44017
120.54282,0.44276
120.30173,0.44578
120.06065,0.44906
119.81956,0.45185
119.57847,0.45328
119.33739,0.45341
119.09630,0.45341
118.85522,0.45485
118.61413,0.45859
118.37305,0.46428
118.13196,0.47059
117.89087,0.47660
117.64979,0.48266
117.40870,0.48936
117.16762,0.49631
116.92653,0.50244
116.68545,0.50746
116.44436,0.51261
116.20327,0.51962
115.96219,0.52898
115.72110,0.53956
115.48002,0.54995
115.23893,0.56010
114.99785,0.57100
114.75676,0.58307
114.51568,0.59504
114.27459,0.60469
114.03350,0.61060
113.79242,0.61335
113.55133,0.61510
113.31025,0.61792
113.06916,0.62242
112.82808,0.62812
112.58699,0.63479
112.34590,0.64270
112.10482,0.65130
111.86373,0.65852
111.62265,0.66192
111.38156,0.66018
111.14048,0.65355
110.89939,0.64353
110.65831,0.63227
110.41722,0.62189
110.17613,0.61401
109.93505,0.60962
109.69396,0.60834
109.45288,0.60763
109.21179,0.60356
108.97071,0.59335
108.72962,0.57776
108.48853,0.56104
108.24745,0.54822
108.00636,0.54179
107.76528,0.54016
107.52419,0.53889
107.28311,0.53405
107.04202,0.52467
106.80094,0.51266
106.55985,0.50081
106.31876,0.49074
106.07768,0.48206
105.83659,0.47301
105.59551,0.46267
105.35442,0.45298
105.11334,0.44748
104.87225,0.44735
104.63116,0.44915
104.39008,0.44729
104.14899,0.43886
103.90791,0.42590
103.66682,0.41323
103.42574,0.40443
103.18465,0.39983
102.94357,0.39750
102.70248,0.39550
102.46139,0.39306
102.22031,0.39022
101.97922,0.38700
101.73814,0.38334
101.49705,0.37989
101.25597,0.37847
101.01488,0.38085
100.77379,0.38680
100.53271,0.39370
100.29162,0.39880
100.05054,0.40162
99.80945,0.40355
99.56837,0.40538
99.32728,0.40625
99.08620,0.40508
98.84511,0.40259
98.60402,0.40096
98.36294,0.40132
98.12185,0.40208
97.88077,0.40024
97.63968,0.39419
97.39860,0.38495
97.15751,0.37497
96.91642,0.36624
96.67534,0.35952
96.43425,0.35458
96.19317,0.35080
95.95208,0.34769
95.71100,0.34506
95.46991,0.34277
95.22882,0.34039
94.98774,0.33721
94.74665,0.33244
94.50557,0.32549
94.26448,0.31679
94.02340,0.30837
93.78231,0.30298
93.54123,0.30228
93.30014,0.30590
93.05905,0.31164
92.81797,0.31612
92.57688,0.31582
92.33580,0.30908
92.09471,0.29777
91.85363,0.28629
91.61254,0.27854
91.37145,0.27568
91.13037,0.27629
90.88928,0.27798
90.64820,0.27890
90.40711,0.27843
90.16603,0.27713
89.92494,0.27612
89.68386,0.27623
89.44277,0.27758
89.20168,0.28006
88.96060,0.28396
88.71951,0.28961
88.47843,0.29611
88.23734,0.30079
87.99626,0.30076
87.75517,0.29518
87.51408,0.28603
87.27300,0.27643
87.03191,0.26877
86.79083,0.26372
86.54974,0.26036
86.30866,0.25726
86.06757,0.25384
85.82649,0.25091
85.58540,0.24984
85.34431,0.25115
85.10323,0.25385
84.86214,0.25635
84.62106,0.25770
84.37997,0.25798
84.13889,0.25772
83.89780,0.25749
83.65671,0.25791
83.41563,0.25949
83.17454,0.26229
82.93346,0.26576
82.69237,0.26898
82.45129,0.27102
82.21020,0.27136
81.96912,0.27031
81.72803,0.26903
81.48694,0.26857
81.24586,0.26904
81.00477,0.26991
80.76369,0.27105
80.52260,0.27313
80.28152,0.27696
80.04043,0.28265
79.79934,0.28958
79.55826,0.29704
79.31717,0.30477
79.07609,0.31240
78.83500,0.31898
78.59392,0.32338
78.35283,0.32562
78.11174,0.32710
77.87066,0.32936
77.62957,0.33317
77.38849,0.33891
77.14740,0.34683
76.90632,0.35589
76.66523,0.36331
76.42415,0.36670
76.18306,0.36655
75.94197,0.36558
75.70089,0.36576
75.45980,0.36702
75.21872,0.36925
74.97763,0.37407
74.73655,0.38344
74.49546,0.39656
74.25437,0.40941
74.01329,0.41784
73.77220,0.42050
73.53112,0.41813
73.29003,0.41168
73.04895,0.40237
72.80786,0.39294
72.56678,0.38637
72.32569,0.38300
72.08460,0.38015
71.84352,0.37503
71.60243,0.36750
71.36135,0.35942
71.12026,0.35220
70.87918,0.34574
70.63809,0.33979
70.39700,0.33491
70.15592,0.33162
69.91483,0.32941
69.67375,0.32747
69.43266,0.32525
69.19158,0.32207
68.95049,0.31716
68.70941,0.31100
68.46832,0.30524
68.22723,0.30089
67.98615,0.29757
67.74506,0.29490
67.50398,0.29304
67.26289,0.29101
67.02181,0.28649
66.78072,0.27848
66.53963,0.26896
66.29855,0.26073
66.05746,0.25493
65.81638,0.25105
65.57529,0.24762
65.33421,0.24266
65.09312,0.23544
64.85204,0.22809
64.61095,0.22367
64.36986,0.22263
64.12878,0.22274
63.88769,0.22211
63.64661,0.22060
63.40552,0.21884
63.16444,0.21737
62.92335,0.21655
62.68226,0.21599
62.44118,0.21457
62.20009,0.21168
61.95901,0.20783
61.71792,0.20370
61.47684,0.19941
61.23575,0.19510
60.99467,0.19167
60.75358,0.19045
60.51249,0.19214
60.27141,0.19583
60.03032,0.19981
59.78924,0.20351
59.54815,0.20768
59.30707,0.21239
59.06598,0.21626
58.82489,0.21784
58.58381,0.21674
58.34272,0.21377
58.10164,0.21093
57.86055,0.21045
57.61947,0.21326
57.37838,0.21829
57.13729,0.22279
56.89621,0.22336
56.65512,0.21803
56.41404,0.20773
56.17295,0.19573
55.93187,0.18595
55.69078,0.18099
55.44970,0.18060
55.20861,0.18212
54.96752,0.18315
54.72644,0.18354
54.48535,0.18468
54.24427,0.18791
54.00318,0.19369
53.76210,0.20111
53.52101,0.20774
53.27992,0.21063
53.03884,0.20846
52.79775,0.20279
52.55667,0.19702
52.31558,0.19424
52.07450,0.19573
51.83341,0.20048
51.59233,0.20551
51.35124,0.20751
51.11015,0.20536
50.86907,0.20120
50.62798,0.19884
50.38690,0.20107
50.14581,0.20823
49.90473,0.21831
49.66364,0.22762
49.42255,0.23223
49.18147,0.23071
48.94038,0.22578
48.69930,0.22233
48.45821,0.22320
48.21713,0.22723
47.97604,0.23108
47.73496,0.23244
47.49387,0.23200
47.25278,0.23209
47.01170,0.23347
46.77061,0.23386
46.52953,0.23064
46.28844,0.22470
46.04736,0.22080
45.80627,0.22323
45.56518,0.23167
45.32410,0.24208
45.08301,0.25126
44.84193,0.25935
44.60084,0.26762
44.35976,0.27530
44.11867,0.27962
43.87759,0.27884
43.63650,0.27410
43.39541,0.26816
43.15433,0.26331
42.91324,0.26076
42.67216,0.26118
42.43107,0.26494
42.18999,0.27154
41.94890,0.27942
41.70781,0.28627
41.46673,0.28973
41.22564,0.28834
40.98456,0.28183
40.74347,0.27027
40.50239,0.25379
40.26130,0.23400
40.02022,0.21573
39.77913,0.20567
39.53804,0.20756
39.29696,0.21847
39.05587,0.23150
38.81479,0.24212
38.57370,0.25063
38.33262,0.25977
38.09153,0.27084
37.85044,0.28197
37.60936,0.29023
37.36827,0.29602
37.12719,0.30366
36.88610,0.31536
36.64502,0.32467
36.40393,0.31932
36.16284,0.29205
35.92176,0.24803
35.68067,0.20237
35.43959,0.16952
35.19850,0.15442
34.95742,0.15377
34.71633,0.16373
34.47525,0.18352
34.23416,0.21131
33.99307,0.23799
33.75199,0.24964
33.51090,0.23906
33.26982,0.21383
33.02873,0.19079
32.78765,0.18077
32.54656,0.17947
32.30547,0.17419
32.06439,0.15550
31.82330,0.12345
31.58222,0.08799
31.34113,0.06464
31.10005,0.06470
30.85896,0.08596
30.61788,0.11203
30.37679,0.12403
30.13570,0.11471
29.89462,0.09064
29.65353,0.06373
29.41245,0.04392
29.17136,0.03451
28.93028,0.02894
28.68919,0.01461
28.44810,-0.01497
28.20702,-0.05303
27.96593,-0.08635
27.72485,-0.10753
27.48376,-0.11694
27.24268,-0.11518
27.00159,-0.09959
26.76051,-0.06912
26.51942,-0.02935
26.27833,0.00804
26.03725,0.02897
25.79616,0.02274
25.55508,-0.01212
25.31399,-0.06656
25.07291,-0.12476
24.83182,-0.17183
24.59073,-0.20356
24.34965,-0.22846
24.10856,-0.25637
23.86748,-0.28766
23.62639,-0.31342
23.38531,-0.32547
23.14422,-0.32879
22.90314,-0.34205
22.66205,-0.38116
22.42096,-0.44296
22.17988,-0.50451
21.93879,-0.53683
21.69771,-0.52152
21.45662,-0.46500
21.21554,-0.39866
20.97445,-0.35615
20.73336,-0.35439
20.49228,-0.38842
20.25119,-0.43406
20.01011,-0.46110
19.76902,-0.45697
19.52794,-0.43705
19.28685,-0.42689
19.04576,-0.44150
18.80468,-0.47644
18.56359,-0.50819
18.32251,-0.50631
18.08142,-0.46128
17.84034,-0.41056
17.59925,-0.41753
17.35817,-0.52694
17.11708,-0.72896
16.87599,-0.93686
16.63491,-1.02218
16.39382,-0.94727
16.15274,-0.81688
15.91165,-0.73953
15.67057,-0.74845
15.42948,-0.80566
15.18839,-0.83717
14.94731,-0.78701
14.70622,-0.66772
14.46514,-0.55358
14.22405,-0.52069
13.98297,-0.60445
13.74188,-0.78361
13.50080,-0.97547
13.25971,-1.06684
13.01862,-1.00955
12.77754,-0.86410
12.53645,-0.71275
12.29537,-0.60584
12.05428,-0.56116
11.81320,-0.57142
11.57211,-0.60657
11.33102,-0.62772
11.08994,-0.61933
10.84885,-0.59862
10.60777,-0.59210
10.36668,-0.61799
10.12560,-0.67582
9.88451,-0.74841
9.64343,-0.81585
9.40234,-0.86671
9.16125,-0.89862
8.92017,-0.91522
8.67908,-0.92082
8.43800,-0.90932
8.19691,-0.86776
7.95583,-0.80014
7.71474,-0.73472
7.47365,-0.69657
7.23257,-0.68598
6.99148,-0.68783
6.75040,-0.69307
6.50931,-0.70200
6.26823,-0.71209
6.02714,-0.71238
5.78606,-0.69965
5.54497,-0.69504
5.30388,-0.72557
5.06280,-0.80159
4.82171,-0.91949
4.58063,-1.07712
4.33954,-1.26192
4.09846,-1.39843
3.85737,-1.38011
3.61628,-1.24778
3.37520,-1.08378
3.13411,-0.95405
2.89303,-0.91698
2.65194,-1.00136
2.41086,-1.16417
2.16977,-1.25889
1.92869,-1.13721
1.68760,-0.94225
1.44651,-0.80787
1.20543,-0.74884
0.96434,-0.71350
0.72326,-0.65423
0.48217,-0.56503
0.24109,-0.46882
-0.00000,-0.37989
