399.71998,2.11695
399.47889,2.13154
399.23781,2.14522
398.99672,2.16783
398.75564,2.20229
398.51455,2.22529
398.27347,2.20255
398.03238,2.14612
397.79129,2.10568
397.55021,2.10013
397.30912,2.10502
397.06804,2.08501
396.82695,2.03141
396.58587,1.97063
396.34478,1.92956
396.10369,1.90769
395.86261,1.88805
395.62152,1.86026
395.38044,1.82566
395.13935,1.79221
394.89827,1.77020
394.65718,1.76831
394.41610,1.78385
394.17501,1.80203
393.93392,1.81055
393.69284,1.81224
393.45175,1.81953
393.21067,1.83846
392.96958,1.86000
392.72850,1.86785
392.48741,1.85482
392.24632,1.82900
392.00524,1.80766
391.76415,1.80615
391.52307,1.82381
391.28198,1.83973
391.04090,1.83145
390.79981,1.80248
390.55872,1.77675
390.31764,1.77545
390.07655,1.80831
389.83547,1.87327
389.59438,1.95145
389.35330,2.00808
389.11221,2.01840
388.87113,2.00106
388.63004,1.98194
388.38895,1.95838
388.14787,1.92141
387.90678,1.88427
387.66570,1.86095
387.42461,1.85067
387.18353,1.84674
386.94244,1.84789
386.70135,1.86026
386.46027,1.88618
386.21918,1.90697
385.97810,1.89475
385.73701,1.84585
385.49593,1.77941
385.25484,1.72306
385.01376,1.70528
384.77267,1.74553
384.53158,1.84432
384.29050,1.98033
384.04941,2.11431
383.80833,2.18865
383.56724,2.15138
383.32616,2.04867
383.08507,1.96192
382.84398,1.90831
382.60290,1.85280
382.36181,1.76968
382.12073,1.67108
381.87964,1.59648
381.63856,1.57336
381.39747,1.59141
381.15639,1.60983
380.91530,1.59554
380.67421,1.55733
380.43313,1.52782
380.19204,1.53122
379.95096,1.57661
379.70987,1.66522
379.46879,1.78978
379.22770,1.92139
378.98661,2.00503
378.74553,1.99061
378.50444,1.88974
378.26336,1.76738
378.02227,1.67439
377.78119,1.63006
377.54010,1.63230
377.29902,1.66873
377.05793,1.72383
376.81684,1.78245
376.57576,1.82757
376.33467,1.84221
376.09359,1.83197
375.85250,1.82237
375.61142,1.82977
375.37033,1.85898
375.12924,1.89927
374.88816,1.92752
374.64707,1.93001
374.40599,1.91065
374.16490,1.87646
373.92382,1.83251
373.68273,1.78774
373.44164,1.75602
373.20056,1.74923
372.95947,1.77101
372.71839,1.81427
372.47730,1.86282
372.23622,1.90046
371.99513,1.92422
371.75405,1.94691
371.51296,1.98129
371.27187,2.02466
371.03079,2.06477
370.78970,2.09380
370.54862,2.10326
370.30753,2.08578
370.06645,2.04587
369.82536,1.99327
369.58427,1.94008
369.34319,1.90129
369.10210,1.89029
368.86102,1.90637
368.61993,1.92750
368.37885,1.92257
368.13776,1.87988
367.89668,1.82505
367.65559,1.80217
367.41450,1.83596
367.17342,1.91443
366.93233,2.00019
366.69125,2.05698
366.45016,2.06758
366.20908,2.03147
365.96799,1.95943
365.72690,1.87345
365.48582,1.79542
365.24473,1.73736
365.00365,1.70461
364.76256,1.69782
364.52148,1.71116
364.28039,1.73256
364.03931,1.75085
363.79822,1.76573
363.55713,1.78934
363.31605,1.83262
363.07496,1.88792
362.83388,1.93369
362.59279,1.96164
362.35171,1.97383
362.11062,1.96121
361.86953,1.91141
361.62845,1.83264
361.38736,1.75696
361.14628,1.71877
360.90519,1.73570
360.66411,1.80178
360.42302,1.88956
360.18194,1.96074
359.94085,1.98528
359.69976,1.96207
359.45868,1.91572
359.21759,1.87099
358.97651,1.84094
358.73542,1.82884
358.49434,1.83129
358.25325,1.83844
358.01216,1.83902
357.77108,1.83064
357.52999,1.82145
357.28891,1.81914
357.04782,1.82178
356.80674,1.82003
356.56565,1.80470
356.32457,1.77462
356.08348,1.74126
355.84239,1.72114
355.60131,1.72035
355.36022,1.73125
355.11914,1.74292
354.87805,1.75093
354.63697,1.75802
354.39588,1.77061
354.15479,1.79538
353.91371,1.83532
353.67262,1.87734
353.43154,1.89032
353.19045,1.85703
352.94937,1.80241
352.70828,1.76169
352.46719,1.74724
352.22611,1.75400
351.98502,1.77629
351.74394,1.80815
351.50285,1.83694
351.26177,1.84681
351.02068,1.83149
350.77960,1.80145
350.53851,1.77728
350.29742,1.77657
350.05634,1.80171
349.81525,1.83693
349.57417,1.86109
349.33308,1.86699
349.09200,1.86036
348.85091,1.84811
348.60982,1.83529
348.36874,1.82290
348.12765,1.80736
347.88657,1.78832
347.64548,1.77003
347.40440,1.75130
347.16331,1.72763
346.92223,1.70275
346.68114,1.68738
346.44005,1.68627
346.19897,1.69387
345.95788,1.70611
345.71680,1.72872
345.47571,1.76600
345.23463,1.80987
344.99354,1.84656
344.75245,1.87081
344.51137,1.88681
344.27028,1.89795
344.02920,1.90066
343.78811,1.88731
343.54703,1.85531
343.30594,1.80982
343.06486,1.75993
342.82377,1.71760
342.58268,1.69237
342.34160,1.68489
342.10051,1.68960
341.85943,1.70099
341.61834,1.71344
341.37726,1.72106
341.13617,1.72425
340.89508,1.72912
340.65400,1.73571
340.41291,1.73453
340.17183,1.71817
339.93074,1.69262
339.68966,1.67574
339.44857,1.68530
339.20749,1.72735
338.96640,1.79319
338.72531,1.86403
338.48423,1.91983
338.24314,1.94885
338.00206,1.94813
337.76097,1.92041
337.51989,1.87728
337.27880,1.83083
337.03771,1.78467
336.79663,1.73975
336.55554,1.70284
336.31446,1.68982
336.07337,1.72015
335.83229,1.80278
335.59120,1.92517
335.35012,2.05563
335.10903,2.15454
334.86794,2.18446
334.62686,2.12773
334.38577,2.01863
334.14469,1.91413
333.90360,1.84538
333.66252,1.81111
333.42143,1.79593
333.18034,1.78710
332.93926,1.77848
332.69817,1.76817
332.45709,1.75765
332.21600,1.75242
331.97492,1.76211
331.73383,1.79657
331.49274,1.85522
331.25166,1.91750
331.01057,1.94849
330.76949,1.92579
330.52840,1.86185
330.28732,1.78944
330.04623,1.73593
329.80515,1.71695
329.56406,1.73809
329.32297,1.78764
329.08189,1.83299
328.84080,1.84529
328.59972,1.83049
328.35863,1.80253
328.11755,1.77233
327.87646,1.75115
327.63537,1.74466
327.39429,1.74840
327.15320,1.75598
326.91212,1.76437
326.67103,1.76875
326.42995,1.76620
326.18886,1.76364
325.94778,1.77452
325.70669,1.80455
325.46560,1.84547
325.22452,1.88560
324.98343,1.92023
324.74235,1.95135
324.50126,1.98063
324.26018,2.00184
324.01909,2.00012
323.77800,1.96144
323.53692,1.89070
323.29583,1.80844
323.05475,1.73833
322.81366,1.70155
322.57258,1.70878
322.33149,1.75424
322.09041,1.81901
321.84932,1.88467
321.60823,1.94460
321.36715,1.99030
321.12606,2.00234
320.88498,1.97605
320.64389,1.93600
320.40281,1.90507
320.16172,1.88136
319.92063,1.84678
319.67955,1.78981
319.43846,1.71979
319.19738,1.66712
318.95629,1.65720
318.71521,1.69148
318.47412,1.74718
318.23304,1.79065
317.99195,1.79843
317.75086,1.77042
317.50978,1.72555
317.26869,1.68584
317.02761,1.66210
316.78652,1.65217
316.54544,1.64986
316.30435,1.65270
316.06326,1.66431
315.82218,1.68790
315.58109,1.71669
315.34001,1.73735
315.09892,1.74177
314.85784,1.73321
314.61675,1.72295
314.37566,1.72433
314.13458,1.74494
313.89349,1.77581
313.65241,1.79201
313.41132,1.77375
313.17024,1.72573
312.92915,1.66897
312.68807,1.61961
312.44698,1.58067
312.20589,1.54965
311.96481,1.52767
311.72372,1.51876
311.48264,1.52233
311.24155,1.53079
311.00047,1.53729
310.75938,1.54493
310.51829,1.56391
310.27721,1.59610
310.03612,1.62552
309.79504,1.62983
309.55395,1.60320
309.31287,1.56154
309.07178,1.52658
308.83070,1.51073
308.58961,1.51559
308.34852,1.53692
308.10744,1.56661
307.86635,1.59411
307.62527,1.61197
307.38418,1.62069
307.14310,1.62499
306.90201,1.62588
306.66092,1.61902
306.41984,1.60054
306.17875,1.57246
305.93767,1.54288
305.69658,1.52234
305.45550,1.51710
305.21441,1.52430
304.97333,1.53486
304.73224,1.54103
304.49115,1.54009
304.25007,1.53321
304.00898,1.52253
303.76790,1.51006
303.52681,1.49979
303.28573,1.49929
303.04464,1.51548
302.80355,1.54607
302.56247,1.57810
302.32138,1.59764
302.08030,1.59873
301.83921,1.58523
301.59813,1.56677
301.35704,1.55105
301.11596,1.53950
300.87487,1.52980
300.63378,1.51991
300.39270,1.51015
300.15161,1.50339
299.91053,1.50262
299.66944,1.50752
299.42836,1.51458
299.18727,1.52043
298.94618,1.52409
298.70510,1.52568
298.46401,1.52324
298.22293,1.51273
297.98184,1.49295
297.74076,1.46866
297.49967,1.44770
297.25859,1.43514
297.01750,1.43030
296.77641,1.42854
296.53533,1.42531
296.29424,1.41873
296.05316,1.41007
295.81207,1.40268
295.57099,1.40060
295.32990,1.40648
295.08881,1.41921
294.84773,1.43390
294.60664,1.44490
294.36556,1.44928
294.12447,1.44766
293.88339,1.44265
293.64230,1.43737
293.40121,1.43377
293.16013,1.43152
292.91904,1.42836
292.67796,1.42191
292.43687,1.41169
292.19579,1.39945
291.95470,1.38764
291.71362,1.37808
291.47253,1.37122
291.23144,1.36631
290.99036,1.36285
290.74927,1.36155
290.50819,1.36343
290.26710,1.36838
290.02602,1.37464
289.78493,1.37938
289.54384,1.38058
289.30276,1.37862
289.06167,1.37545
288.82059,1.37228
288.57950,1.36888
288.33842,1.36444
288.09733,1.35806
287.85625,1.34914
287.61516,1.33894
287.37407,1.33112
287.13299,1.32927
286.89190,1.33321
286.65082,1.33872
286.40973,1.34175
286.16865,1.34235
285.92756,1.34478
285.68647,1.35441
285.44539,1.37313
285.20430,1.39527
284.96322,1.40892
284.72213,1.40441
284.48105,1.38333
284.23996,1.35749
283.99888,1.33891
283.75779,1.33152
283.51670,1.33118
283.27562,1.33185
283.03453,1.33120
282.79345,1.33077
282.55236,1.33213
282.31128,1.33436
282.07019,1.33607
281.82910,1.33825
281.58802,1.34320
281.34693,1.35074
281.10585,1.35714
280.86476,1.35834
280.62368,1.35378
280.38259,1.34643
280.14151,1.34019
279.90042,1.33724
279.65933,1.33718
279.41825,1.33845
279.17716,1.34020
278.93608,1.34191
278.69499,1.34230
278.45391,1.34079
278.21282,1.33923
277.97173,1.34000
277.73065,1.34332
277.48956,1.34759
277.24848,1.35065
277.00739,1.34990
276.76631,1.34352
276.52522,1.33244
276.28414,1.31999
276.04305,1.30969
275.80196,1.30442
275.56088,1.30656
275.31979,1.31638
275.07871,1.33012
274.83762,1.34130
274.59654,1.34485
274.35545,1.33942
274.11436,1.32620
273.87328,1.30768
273.63219,1.28879
273.39111,1.27733
273.15002,1.28030
272.90894,1.29857
272.66785,1.32477
272.42676,1.34721
272.18568,1.35774
271.94459,1.35709
271.70351,1.35227
271.46242,1.34938
271.22134,1.34932
270.98025,1.34941
270.73917,1.34783
270.49808,1.34613
270.25699,1.34716
270.01591,1.35066
269.77482,1.35184
269.53374,1.34626
269.29265,1.33596
269.05157,1.32910
268.81048,1.33325
268.56939,1.34940
268.32831,1.37135
268.08722,1.38990
267.84614,1.39900
267.60505,1.39916
267.36397,1.39500
267.12288,1.38968
266.88180,1.38282
266.64071,1.37369
266.39962,1.36424
266.15854,1.35818
265.91745,1.35838
265.67637,1.36539
265.43528,1.37638
265.19420,1.38533
264.95311,1.38679
264.71202,1.38088
264.47094,1.37324
264.22985,1.36944
263.98877,1.37057
263.74768,1.37465
263.50660,1.38030
263.26551,1.38711
263.02443,1.39312
262.78334,1.39423
262.54225,1.38755
262.30117,1.37492
262.06008,1.36146
261.81900,1.35107
261.57791,1.34436
261.33683,1.34024
261.09574,1.33779
260.85465,1.33594
260.61357,1.33295
260.37248,1.32765
260.13140,1.32066
259.89031,1.31344
259.64923,1.30705
259.40814,1.30269
259.16706,1.30246
258.92597,1.30791
258.68488,1.31818
258.44380,1.33011
258.20271,1.34036
257.96163,1.34716
257.72054,1.34952
257.47946,1.34532
257.23837,1.33241
256.99728,1.31262
256.75620,1.29250
256.51511,1.27815
256.27403,1.27012
256.03294,1.26477
255.79186,1.26014
255.55077,1.25837
255.30968,1.26194
255.06860,1.27004
254.82751,1.27956
254.58643,1.28745
254.34534,1.29062
254.10426,1.28598
253.86317,1.27324
253.62209,1.25665
253.38100,1.24154
253.13991,1.23072
252.89883,1.22470
252.65774,1.22280
252.41666,1.22303
252.17557,1.22209
251.93449,1.21745
251.69340,1.20977
251.45231,1.20256
251.21123,1.19910
250.97014,1.20019
250.72906,1.20463
250.48797,1.21156
250.24689,1.22136
250.00580,1.23391
249.76472,1.24683
249.52363,1.25661
249.28254,1.26152
249.04146,1.26249
248.80037,1.26117
248.55929,1.25850
248.31820,1.25521
248.07712,1.25223
247.83603,1.24986
247.59494,1.24732
247.35386,1.24403
247.11277,1.24113
246.87169,1.24121
246.63060,1.24549
246.38952,1.25111
246.14843,1.25268
245.90735,1.24820
245.66626,1.24240
245.42517,1.24239
245.18409,1.25044
244.94300,1.26214
244.70192,1.27035
244.46083,1.27001
244.21975,1.26060
243.97866,1.24587
243.73757,1.23153
243.49649,1.22221
243.25540,1.21944
243.01432,1.22189
242.77323,1.22691
242.53215,1.23175
242.29106,1.23422
242.04998,1.23395
241.80889,1.23336
241.56780,1.23549
241.32672,1.24009
241.08563,1.24263
240.84455,1.23843
240.60346,1.22757
240.36238,1.21543
240.12129,1.20871
239.88020,1.21081
239.63912,1.21979
239.39803,1.22980
239.15695,1.23456
238.91586,1.23114
238.67478,1.22143
238.43369,1.21019
238.19261,1.20110
237.95152,1.19552
237.71043,1.19429
237.46935,1.19766
237.22826,1.20306
236.98718,1.20569
236.74609,1.20275
236.50501,1.19611
236.26392,1.19063
236.02283,1.19093
235.78175,1.19849
235.54066,1.21027
235.29958,1.21994
235.05849,1.22167
234.81741,1.21390
234.57632,1.19997
234.33523,1.18536
234.09415,1.17438
233.85306,1.16836
233.61198,1.16566
233.37089,1.16378
233.12981,1.16213
232.88872,1.16208
232.64764,1.16508
232.40655,1.17164
232.16546,1.18166
231.92438,1.19429
231.68329,1.20658
231.44221,1.21298
231.20112,1.20821
230.96004,1.19099
230.71895,1.16500
230.47786,1.13704
230.23678,1.11471
229.99569,1.10387
229.75461,1.10628
229.51352,1.11892
229.27244,1.13581
229.03135,1.15092
228.79027,1.15988
228.54918,1.16048
228.30809,1.15298
228.06701,1.13982
227.82592,1.12490
227.58484,1.11286
227.34375,1.10744
227.10267,1.10918
226.86158,1.11480
226.62049,1.11952
226.37941,1.12064
226.13832,1.11918
225.89724,1.11799
225.65615,1.11883
225.41507,1.12100
225.17398,1.12198
224.93290,1.11912
224.69181,1.11142
224.45072,1.10015
224.20964,1.08806
223.96855,1.07797
223.72747,1.07193
223.48638,1.07037
223.24530,1.07141
223.00421,1.07132
222.76312,1.06713
222.52204,1.05897
222.28095,1.05001
222.03987,1.04393
221.79878,1.04223
221.55770,1.04346
221.31661,1.04458
221.07553,1.04341
220.83444,1.04015
220.59335,1.03678
220.35227,1.03490
220.11118,1.03404
219.87010,1.03229
219.62901,1.02843
219.38793,1.02308
219.14684,1.01766
218.90575,1.01283
218.66467,1.00799
218.42358,1.00195
218.18250,0.99421
217.94141,0.98591
217.70033,0.97919
217.45924,0.97504
217.21816,0.97219
216.97707,0.96856
216.73598,0.96350
216.49490,0.95830
216.25381,0.95471
216.01273,0.95354
215.77164,0.95412
215.53056,0.95461
215.28947,0.95341
215.04838,0.95039
214.80730,0.94621
214.56621,0.94075
214.32513,0.93324
214.08404,0.92383
213.84296,0.91451
213.60187,0.90787
213.36078,0.90525
213.11970,0.90604
212.87861,0.90840
212.63753,0.91045
212.39644,0.91087
212.15536,0.90898
211.91427,0.90505
211.67319,0.90053
211.43210,0.89714
211.19101,0.89541
210.94993,0.89468
210.70884,0.89457
210.46776,0.89559
210.22667,0.89772
209.98559,0.89913
209.74450,0.89743
209.50341,0.89223
209.26233,0.88562
209.02124,0.88000
208.78016,0.87546
208.53907,0.87003
208.29799,0.86255
208.05690,0.85449
207.81582,0.84827
207.57473,0.84467
207.33364,0.84259
207.09256,0.84045
206.85147,0.83730
206.61039,0.83306
206.36930,0.82848
206.12822,0.82475
205.88713,0.82259
205.64604,0.82167
205.40496,0.82094
205.16387,0.81953
204.92279,0.81714
204.68170,0.81362
204.44062,0.80877
204.19953,0.80301
203.95845,0.79767
203.71736,0.79419
203.47627,0.79339
203.23519,0.79547
202.99410,0.80012
202.75302,0.80581
202.51193,0.80973
202.27085,0.80978
202.02976,0.80635
201.78867,0.80173
201.54759,0.79814
201.30650,0.79635
201.06542,0.79567
200.82433,0.79487
200.58325,0.79314
200.34216,0.79083
200.10108,0.78946
199.85999,0.79053
199.61890,0.79423
199.37782,0.79915
199.13673,0.80338
198.89565,0.80575
198.65456,0.80616
198.41348,0.80524
198.17239,0.80413
197.93130,0.80397
197.69022,0.80504
197.44913,0.80624
197.20805,0.80593
196.96696,0.80380
196.72588,0.80162
196.48479,0.80149
196.24370,0.80350
196.00262,0.80559
195.76153,0.80598
195.52045,0.80524
195.27936,0.80574
195.03828,0.80926
194.79719,0.81566
194.55611,0.82370
194.31502,0.83222
194.07393,0.84043
193.83285,0.84772
193.59176,0.85378
193.35068,0.85885
193.10959,0.86353
192.86851,0.86827
192.62742,0.87324
192.38633,0.87819
192.14525,0.88253
191.90416,0.88538
191.66308,0.88590
191.42199,0.88372
191.18091,0.87965
190.93982,0.87551
190.69874,0.87304
190.45765,0.87282
190.21656,0.87438
189.97548,0.87694
189.73439,0.87985
189.49331,0.88245
189.25222,0.88445
189.01114,0.88651
188.77005,0.88948
188.52896,0.89269
188.28788,0.89413
188.04679,0.89299
187.80571,0.89100
187.56462,0.89050
187.32354,0.89213
187.08245,0.89499
186.84137,0.89821
186.60028,0.90132
186.35919,0.90390
186.11811,0.90568
185.87702,0.90686
185.63594,0.90739
185.39485,0.90636
185.15377,0.90317
184.91268,0.89918
184.67159,0.89746
184.43051,0.90001
184.18942,0.90572
183.94834,0.91131
183.70725,0.91438
183.46617,0.91527
183.22508,0.91611
182.98400,0.91831
182.74291,0.92130
182.50182,0.92387
182.26074,0.92631
182.01965,0.93037
181.77857,0.93661
181.53748,0.94251
181.29640,0.94412
181.05531,0.93952
180.81422,0.93056
180.57314,0.92159
180.33205,0.91660
180.09097,0.91667
179.84988,0.91951
179.60880,0.92166
179.36771,0.92136
179.12663,0.91956
178.88554,0.91846
178.64445,0.91943
178.40337,0.92218
178.16228,0.92537
177.92120,0.92786
177.68011,0.92947
177.43903,0.93084
177.19794,0.93249
176.95685,0.93431
176.71577,0.93551
176.47468,0.93483
176.23360,0.93104
175.99251,0.92428
175.75143,0.91661
175.51034,0.91078
175.26925,0.90847
175.02817,0.90981
174.78708,0.91362
174.54600,0.91787
174.30491,0.92067
174.06383,0.92142
173.82274,0.92095
173.58166,0.92047
173.34057,0.92046
173.09948,0.92067
172.85840,0.92098
172.61731,0.92182
172.37623,0.92353
172.13514,0.92584
171.89406,0.92860
171.65297,0.93249
171.41188,0.93813
171.17080,0.94451
170.92971,0.94906
170.68863,0.94945
170.44754,0.94507
170.20646,0.93763
169.96537,0.93046
169.72429,0.92697
169.48320,0.92864
169.24211,0.93389
169.00103,0.93892
168.75994,0.94026
168.51886,0.93682
168.27777,0.92968
168.03669,0.92038
167.79560,0.91046
167.55451,0.90204
167.31343,0.89776
167.07234,0.89911
166.83126,0.90491
166.59017,0.91196
166.34909,0.91720
166.10800,0.91885
165.86692,0.91603
165.62583,0.90840
165.38474,0.89677
165.14366,0.88319
164.90257,0.86983
164.66149,0.85777
164.42040,0.84728
164.17932,0.83874
163.93823,0.83267
163.69714,0.82890
163.45606,0.82646
163.21497,0.82407
162.97389,0.82043
162.73280,0.81455
162.49172,0.80639
162.25063,0.79713
162.00955,0.78845
161.76846,0.78158
161.52737,0.77699
161.28629,0.77457
161.04520,0.77346
160.80412,0.77189
160.56303,0.76795
160.32195,0.76113
160.08086,0.75291
159.83977,0.74554
159.59869,0.74045
159.35760,0.73736
159.11652,0.73468
158.87543,0.73092
158.63435,0.72616
158.39326,0.72140
158.15218,0.71672
157.91109,0.71100
157.67000,0.70380
157.42892,0.69627
157.18783,0.68964
156.94675,0.68387
156.70566,0.67835
156.46458,0.67318
156.22349,0.66922
155.98240,0.66730
155.74132,0.66759
155.50023,0.66946
155.25915,0.67157
155.01806,0.67248
154.77698,0.67139
154.53589,0.66852
154.29480,0.66483
154.05372,0.66143
153.81263,0.65881
153.57155,0.65660
153.33046,0.65424
153.08938,0.65181
152.84829,0.64999
152.60721,0.64937
152.36612,0.65032
152.12503,0.65324
151.88395,0.65833
151.64286,0.66521
151.40178,0.67326
151.16069,0.68211
150.91961,0.69126
150.67852,0.69922
150.43743,0.70383
150.19635,0.70400
149.95526,0.70103
149.71418,0.69754
149.47309,0.69552
149.23201,0.69538
148.99092,0.69643
148.74984,0.69792
148.50875,0.69961
148.26766,0.70155
148.02658,0.70372
147.78549,0.70604
147.54441,0.70848
147.30332,0.71104
147.06224,0.71366
146.82115,0.71619
146.58006,0.71846
146.33898,0.72041
146.09789,0.72228
145.85681,0.72451
145.61572,0.72742
145.37464,0.73072
145.13355,0.73352
144.89247,0.73451
144.65138,0.73226
144.41029,0.72605
144.16921,0.71677
143.92812,0.70681
143.68704,0.69863
143.44595,0.69329
143.20487,0.69006
142.96378,0.68721
142.72269,0.68328
142.48161,0.67804
142.24052,0.67245
141.99944,0.66757
141.75835,0.66371
141.51727,0.66062
141.27618,0.65810
141.03510,0.65588
140.79401,0.65327
140.55292,0.64942
140.31184,0.64430
140.07075,0.63913
139.82967,0.63550
139.58858,0.63397
139.34750,0.63341
139.10641,0.63212
138.86532,0.62940
138.62424,0.62569
138.38315,0.62129
138.14207,0.61593
137.90098,0.60954
137.65990,0.60300
137.41881,0.59777
137.17772,0.59500
136.93664,0.59494
136.69555,0.59689
136.45447,0.59957
136.21338,0.60174
135.97230,0.60252
135.73121,0.60146
135.49013,0.59856
135.24904,0.59429
135.00795,0.58948
134.76687,0.58532
134.52578,0.58323
134.28470,0.58440
134.04361,0.58905
133.80253,0.59611
133.56144,0.60319
133.32035,0.60738
133.07927,0.60675
132.83818,0.60186
132.59710,0.59549
132.35601,0.59053
132.11493,0.58771
131.87384,0.58580
131.63276,0.58366
131.39167,0.58170
131.15058,0.58081
130.90950,0.58079
130.66841,0.58047
130.42733,0.57950
130.18624,0.57904
129.94516,0.58021
129.70407,0.58228
129.46298,0.58281
129.22190,0.57978
128.98081,0.57327
128.73973,0.56524
128.49864,0.55799
128.25756,0.55268
128.01647,0.54916
127.77539,0.54688
127.53430,0.54579
127.29321,0.54627
127.05213,0.54829
126.81104,0.55088
126.56996,0.55242
126.32887,0.55142
126.08779,0.54739
125.84670,0.54131
125.60561,0.53559
125.36453,0.53279
125.12344,0.53372
124.88236,0.53678
124.64127,0.53939
124.40019,0.54012
124.15910,0.53949
123.91802,0.53886
123.67693,0.53877
123.43584,0.53830
123.19476,0.53623
122.95367,0.53292
122.71259,0.53059
122.47150,0.53127
122.23042,0.53443
121.98933,0.53718
121.74824,0.53694
121.50716,0.53340
121.26607,0.52809
121.02499,0.52300
120.78390,0.51962
120.54282,0.51827
120.30173,0.51809
120.06065,0.51811
119.81956,0.51855
119.57847,0.52042
119.33739,0.52391
119.09630,0.52784
118.85522,0.53069
118.61413,0.53183
118.37305,0.53161
118.13196,0.53086
117.89087,0.53020
117.64979,0.52973
117.40870,0.52945
117.16762,0.52996
116.92653,0.53220
116.68545,0.53642
116.44436,0.54177
116.20327,0.54700
115.96219,0.55149
115.72110,0.55548
115.48002,0.55915
115.23893,0.56146
114.99785,0.56067
114.75676,0.55636
114.51568,0.55049
114.27459,0.54562
114.03350,0.54254
113.79242,0.54046
113.55133,0.53897
113.31025,0.53868
113.06916,0.54000
112.82808,0.54219
112.58699,0.54381
112.34590,0.54412
112.10482,0.54367
111.86373,0.54378
111.62265,0.54513
111.38156,0.54736
111.14048,0.54959
110.89939,0.55073
110.65831,0.54960
110.41722,0.54577
110.17613,0.54048
109.93505,0.53658
109.69396,0.53657
109.45288,0.54012
109.21179,0.54386
108.97071,0.54436
108.72962,0.54132
108.48853,0.53753
108.24745,0.53605
108.00636,0.53778
107.76528,0.54125
107.52419,0.54427
107.28311,0.54566
107.04202,0.54573
106.80094,0.54555
106.55985,0.54631
106.31876,0.54853
106.07768,0.55099
105.83659,0.55105
105.59551,0.54702
105.35442,0.54033
105.11334,0.53447
104.87225,0.53147
104.63116,0.53034
104.39008,0.52907
104.14899,0.52726
103.90791,0.52617
103.66682,0.52690
103.42574,0.52926
103.18465,0.53209
102.94357,0.53413
102.70248,0.53480
102.46139,0.53414
102.22031,0.53222
101.97922,0.52916
101.73814,0.52582
101.49705,0.52354
101.25597,0.52280
101.01488,0.52256
100.77379,0.52126
100.53271,0.51830
100.29162,0.51440
100.05054,0.51051
99.80945,0.50670
99.56837,0.50221
99.32728,0.49645
99.08620,0.48992
98.84511,0.48401
98.60402,0.47977
98.36294,0.47654
98.12185,0.47233
97.88077,0.46567
97.63968,0.45710
97.39860,0.44860
97.15751,0.44172
96.91642,0.43657
96.67534,0.43233
96.43425,0.42829
96.19317,0.42439
95.95208,0.42106
95.71100,0.41864
95.46991,0.41697
95.22882,0.41523
94.98774,0.41258
94.74665,0.40920
94.50557,0.40633
94.26448,0.40492
94.02340,0.40437
93.78231,0.40312
93.54123,0.40013
93.30014,0.39556
93.05905,0.39006
92.81797,0.38386
92.57688,0.37690
92.33580,0.36964
92.09471,0.36332
91.85363,0.35901
91.61254,0.35682
91.37145,0.35615
91.13037,0.35633
90.88928,0.35672
90.64820,0.35626
90.40711,0.35382
90.16603,0.34902
89.92494,0.34234
89.68386,0.33409
89.44277,0.32453
89.20168,0.31505
88.96060,0.30842
88.71951,0.30676
88.47843,0.30948
88.23734,0.31362
87.99626,0.31611
87.75517,0.31585
87.51408,0.31365
87.27300,0.31061
87.03191,0.30723
86.79083,0.30384
86.54974,0.30114
86.30866,0.29971
86.06757,0.29933
85.82649,0.29951
85.58540,0.30062
85.34431,0.30394
85.10323,0.31004
84.86214,0.31755
84.62106,0.32393
84.37997,0.32746
84.13889,0.32810
83.89780,0.32698
83.65671,0.32588
83.41563,0.32710
83.17454,0.33236
82.93346,0.34107
82.69237,0.35022
82.45129,0.35686
82.21020,0.36096
81.96912,0.36518
81.72803,0.37181
81.48694,0.38046
81.24586,0.38897
81.00477,0.39611
80.76369,0.40293
80.52260,0.41147
80.28152,0.42249
80.04043,0.43448
79.79934,0.44449
79.55826,0.45043
79.31717,0.45294
79.07609,0.45507
78.83500,0.45941
78.59392,0.46546
78.35283,0.47034
78.11174,0.47248
77.87066,0.47381
77.62957,0.47754
77.38849,0.48436
77.14740,0.49190
76.90632,0.49731
76.66523,0.49954
76.42415,0.49947
76.18306,0.49851
75.94197,0.49737
75.70089,0.49555
75.45980,0.49205
75.21872,0.48675
74.97763,0.48061
74.73655,0.47427
74.49546,0.46713
74.25437,0.45796
74.01329,0.44627
73.77220,0.43346
73.53112,0.42256
73.29003,0.41629
73.04895,0.41445
72.80786,0.41379
72.56678,0.41146
72.32569,0.40793
72.08460,0.40525
71.84352,0.40310
71.60243,0.39862
71.36135,0.39105
71.12026,0.38421
70.87918,0.38217
70.63809,0.38405
70.39700,0.38501
70.15592,0.38260
69.91483,0.37967
69.67375,0.37988
69.43266,0.38219
69.19158,0.38216
68.95049,0.37847
68.70941,0.37503
68.46832,0.37560
68.22723,0.37882
67.98615,0.38000
67.74506,0.37645
67.50398,0.36912
67.26289,0.36016
67.02181,0.35123
66.78072,0.34368
66.53963,0.33824
66.29855,0.33428
66.05746,0.33097
65.81638,0.32877
65.57529,0.32865
65.33421,0.32978
65.09312,0.32986
64.85204,0.32806
64.61095,0.32615
64.36986,0.32587
64.12878,0.32645
63.88769,0.32593
63.64661,0.32356
63.40552,0.31959
63.16444,0.31430
62.92335,0.30930
62.68226,0.30811
62.44118,0.31292
62.20009,0.32159
61.95901,0.33009
61.71792,0.33670
61.47684,0.34139
61.23575,0.34336
60.99467,0.34227
60.75358,0.34053
60.51249,0.34115
60.27141,0.34464
60.03032,0.34978
59.78924,0.35517
59.54815,0.35839
59.30707,0.35629
59.06598,0.34846
58.82489,0.33838
58.58381,0.32975
58.34272,0.32375
58.10164,0.31979
57.86055,0.31635
57.61947,0.31135
57.37838,0.30390
57.13729,0.29530
56.89621,0.28699
56.65512,0.27904
56.41404,0.27145
56.17295,0.26482
55.93187,0.25929
55.69078,0.25434
55.44970,0.24965
55.20861,0.24554
54.96752,0.24330
54.72644,0.24422
54.48535,0.24724
54.24427,0.24879
54.00318,0.24615
53.76210,0.23956
53.52101,0.23081
53.27992,0.22166
53.03884,0.21398
52.79775,0.20979
52.55667,0.21048
52.31558,0.21618
52.07450,0.22544
51.83341,0.23534
51.59233,0.24176
51.35124,0.24065
51.11015,0.23082
50.86907,0.21602
50.62798,0.20303
50.38690,0.19705
50.14581,0.19881
49.90473,0.20448
49.66364,0.20789
49.42255,0.20457
49.18147,0.19527
48.94038,0.18530
48.69930,0.18004
48.45821,0.18097
48.21713,0.18521
47.97604,0.18822
47.73496,0.18687
47.49387,0.18100
47.25278,0.17344
47.01170,0.16875
46.77061,0.17075
46.52953,0.18014
46.28844,0.19398
46.04736,0.20732
45.80627,0.21523
45.56518,0.21465
45.32410,0.20560
45.08301,0.19129
44.84193,0.17698
44.60084,0.16833
44.35976,0.16971
44.11867,0.18167
43.87759,0.19876
43.63650,0.21190
43.39541,0.21456
43.15433,0.20703
42.91324,0.19462
42.67216,0.18222
42.43107,0.17139
42.18999,0.16234
41.94890,0.15655
41.70781,0.15654
41.46673,0.16355
41.22564,0.17608
40.98456,0.18993
40.74347,0.19969
40.50239,0.20213
40.26130,0.19836
40.02022,0.19197
39.77913,0.18557
39.53804,0.18058
39.29696,0.17938
39.05587,0.18512
38.81479,0.19829
38.57370,0.21430
38.33262,0.22540
38.09153,0.22591
37.85044,0.21651
37.60936,0.20401
37.36827,0.19602
37.12719,0.19376
36.88610,0.19006
36.64502,0.17757
36.40393,0.15938
36.16284,0.14805
35.92176,0.15282
35.68067,0.16974
35.43959,0.18568
35.19850,0.18935
34.95742,0.17813
34.71633,0.15808
34.47525,0.14003
34.23416,0.13455
33.99307,0.14685
33.75199,0.17281
33.51090,0.19973
33.26982,0.21493
33.02873,0.21520
32.78765,0.20524
32.54656,0.18809
32.30547,0.16220
32.06439,0.12980
31.82330,0.10306
31.58222,0.09732
31.34113,0.11730
31.10005,0.15142
30.85896,0.18183
30.61788,0.19936
30.37679,0.20751
30.13570,0.21291
29.89462,0.21623
29.65353,0.21527
29.41245,0.21280
29.17136,0.21516
28.93028,0.22434
28.68919,0.23662
28.44810,0.24943
28.20702,0.26622
27.96593,0.29080
27.72485,0.31732
27.48376,0.32990
27.24268,0.31535
27.00159,0.27700
26.76051,0.23399
26.51942,0.20637
26.27833,0.20026
26.03725,0.20576
25.79616,0.20684
25.55508,0.19252
25.31399,0.16378
25.07291,0.13532
24.83182,0.12613
24.59073,0.14385
24.34965,0.18057
24.10856,0.22184
23.86748,0.25630
23.62639,0.27954
23.38531,0.29473
23.14422,0.30779
22.90314,0.32039
22.66205,0.32935
22.42096,0.33102
22.17988,0.32475
21.93879,0.31379
21.69771,0.30527
21.45662,0.30453
21.21554,0.30841
20.97445,0.30927
20.73336,0.30178
20.49228,0.28101
20.25119,0.23585
20.01011,0.14933
19.76902,0.01578
19.52794,-0.13337
19.28685,-0.22450
19.04576,-0.18650
18.80468,-0.02326
18.56359,0.18680
18.32251,0.37226
18.08142,0.51273
17.84034,0.62110
17.59925,0.69847
17.35817,0.71881
17.11708,0.67509
16.87599,0.58774
16.63491,0.46677
16.39382,0.35546
16.15274,0.28888
15.91165,0.27384
15.67057,0.28613
15.42948,0.30021
15.18839,0.32856
14.94731,0.39016
14.70622,0.46368
14.46514,0.49945
14.22405,0.46412
13.98297,0.35826
13.74188,0.21066
13.50080,0.07397
13.25971,-0.01532
13.01862,-0.05792
12.77754,-0.04208
12.53645,0.00464
12.29537,0.03181
12.05428,0.03439
11.81320,-0.02880
11.57211,-0.16200
11.33102,-0.30034
11.08994,-0.35233
10.84885,-0.25970
10.60777,-0.08509
10.36668,0.11932
10.12560,0.34300
9.88451,0.52274
9.64343,0.59620
9.40234,0.54955
9.16125,0.39508
8.92017,0.15370
8.67908,-0.11804
8.43800,-0.31836
8.19691,-0.35981
7.95583,-0.27657
7.71474,-0.15752
7.47365,-0.03447
7.23257,0.07203
6.99148,0.14285
6.75040,0.18713
6.50931,0.24190
6.26823,0.31399
6.02714,0.31417
5.78606,0.21766
5.54497,0.05121
5.30388,-0.14756
5.06280,-0.31052
4.82171,-0.35087
4.58063,-0.27798
4.33954,-0.14842
4.09846,0.00651
3.85737,0.17284
3.61628,0.33668
3.37520,0.42120
3.13411,0.38429
2.89303,0.27139
2.65194,0.16366
2.41086,0.13132
2.16977,0.20557
1.92869,0.36818
1.68760,0.53011
1.44651,0.61448
1.20543,0.59007
0.96434,0.46809
0.72326,0.32674
0.48217,0.25058
0.24109,0.23902
-0.00000,0.24186
