399.71998,1.78915
399.47889,1.84511
399.23781,1.88659
398.99672,1.89746
398.75564,1.87832
398.51455,1.85194
398.27347,1.84401
398.03238,1.86749
397.79129,1.91644
397.55021,1.96671
397.30912,1.98702
397.06804,1.95600
396.82695,1.87953
396.58587,1.79413
396.34478,1.74557
396.10369,1.75854
395.86261,1.82373
395.62152,1.90622
395.38044,1.96620
395.13935,1.97976
394.89827,1.94729
394.65718,1.89117
394.41610,1.83953
394.17501,1.80812
393.93392,1.80000
393.69284,1.81227
393.45175,1.83551
393.21067,1.85429
392.96958,1.85583
392.72850,1.83771
392.48741,1.80693
392.24632,1.77319
392.00524,1.74214
391.76415,1.71390
391.52307,1.68859
391.28198,1.67109
391.04090,1.66778
390.79981,1.68012
390.55872,1.70381
390.31764,1.73408
390.07655,1.76744
389.83547,1.79589
389.59438,1.80662
389.35330,1.79306
389.11221,1.76159
388.87113,1.72382
388.63004,1.68884
388.38895,1.66118
388.14787,1.64183
387.90678,1.63277
387.66570,1.63845
387.42461,1.65811
387.18353,1.67996
386.94244,1.68908
386.70135,1.67868
386.46027,1.65186
386.21918,1.61774
385.97810,1.58492
385.73701,1.55779
385.49593,1.53954
385.25484,1.53282
385.01376,1.53699
384.77267,1.55086
384.53158,1.57602
384.29050,1.61322
384.04941,1.65549
383.80833,1.68613
383.56724,1.68583
383.32616,1.64430
383.08507,1.56960
382.84398,1.48446
382.60290,1.41553
382.36181,1.38579
382.12073,1.40707
381.87964,1.47284
381.63856,1.55869
381.39747,1.63742
381.15639,1.69725
380.91530,1.73601
380.67421,1.74334
380.43313,1.71031
380.19204,1.65575
379.95096,1.62024
379.70987,1.62467
379.46879,1.64797
379.22770,1.64980
378.98661,1.61526
378.74553,1.56808
378.50444,1.53405
378.26336,1.51842
378.02227,1.51418
377.78119,1.51504
377.54010,1.51854
377.29902,1.52537
377.05793,1.53699
376.81684,1.55075
376.57576,1.56020
376.33467,1.56294
376.09359,1.56262
375.85250,1.56546
375.61142,1.58238
375.37033,1.62284
375.12924,1.68107
374.88816,1.73278
374.64707,1.75333
374.40599,1.74210
374.16490,1.71611
373.92382,1.68469
373.68273,1.64798
373.44164,1.61301
373.20056,1.59561
372.95947,1.60687
372.71839,1.64253
372.47730,1.68386
372.23622,1.71031
371.99513,1.71640
371.75405,1.71166
371.51296,1.70381
371.27187,1.69499
371.03079,1.68946
370.78970,1.69489
370.54862,1.71478
370.30753,1.74250
370.06645,1.76583
369.82536,1.77690
369.58427,1.77440
369.34319,1.75698
369.10210,1.72155
368.86102,1.67241
368.61993,1.62475
368.37885,1.59667
368.13776,1.59873
367.89668,1.62569
367.65559,1.65853
367.41450,1.67946
367.17342,1.68665
366.93233,1.69120
366.69125,1.70178
366.45016,1.71488
366.20908,1.71909
365.96799,1.70809
365.72690,1.68805
365.48582,1.67270
365.24473,1.67354
365.00365,1.69359
364.76256,1.72548
364.52148,1.75249
364.28039,1.75569
364.03931,1.72798
363.79822,1.68119
363.55713,1.63767
363.31605,1.61693
363.07496,1.62781
362.83388,1.66604
362.59279,1.71606
362.35171,1.75938
362.11062,1.78570
361.86953,1.79450
361.62845,1.78896
361.38736,1.77453
361.14628,1.75822
360.90519,1.74335
360.66411,1.72724
360.42302,1.70706
360.18194,1.68505
359.94085,1.66503
359.69976,1.64845
359.45868,1.63575
359.21759,1.62776
358.97651,1.62633
358.73542,1.63391
358.49434,1.65016
358.25325,1.66933
358.01216,1.68362
357.77108,1.69010
357.52999,1.69253
357.28891,1.69620
357.04782,1.70284
356.80674,1.70877
356.56565,1.70701
356.32457,1.69285
356.08348,1.67119
355.84239,1.65549
355.60131,1.65477
355.36022,1.66576
355.11914,1.67751
354.87805,1.68278
354.63697,1.68544
354.39588,1.69500
354.15479,1.71683
353.91371,1.74425
353.67262,1.75793
353.43154,1.74165
353.19045,1.69920
352.94937,1.64931
352.70828,1.60835
352.46719,1.58153
352.22611,1.56508
351.98502,1.55253
351.74394,1.54059
351.50285,1.53054
351.26177,1.52541
351.02068,1.52782
350.77960,1.53985
350.53851,1.56285
350.29742,1.59680
350.05634,1.63951
349.81525,1.68545
349.57417,1.72317
349.33308,1.73520
349.09200,1.70898
348.85091,1.65350
348.60982,1.59699
348.36874,1.56523
348.12765,1.56492
347.88657,1.58352
347.64548,1.60226
347.40440,1.61060
347.16331,1.60877
346.92223,1.60219
346.68114,1.59818
346.44005,1.60223
346.19897,1.61177
345.95788,1.61707
345.71680,1.61289
345.47571,1.60392
345.23463,1.59684
344.99354,1.59330
344.75245,1.59019
344.51137,1.58318
344.27028,1.56955
344.02920,1.54980
343.78811,1.52927
343.54703,1.51620
343.30594,1.51448
343.06486,1.51980
342.82377,1.52630
342.58268,1.53584
342.34160,1.55639
342.10051,1.58993
341.85943,1.62452
341.61834,1.64308
341.37726,1.63977
341.13617,1.62159
340.89508,1.59827
340.65400,1.57473
340.41291,1.55087
340.17183,1.52861
339.93074,1.51595
339.68966,1.52038
339.44857,1.53927
339.20749,1.55837
338.96640,1.56214
338.72531,1.54886
338.48423,1.53497
338.24314,1.54153
338.00206,1.57553
337.76097,1.62229
337.51989,1.65607
337.27880,1.66458
337.03771,1.66197
336.79663,1.66880
336.55554,1.68668
336.31446,1.69702
336.07337,1.68455
335.83229,1.65768
335.59120,1.63514
335.35012,1.62053
335.10903,1.60370
334.86794,1.58154
334.62686,1.56474
334.38577,1.56297
334.14469,1.57244
333.90360,1.58017
333.66252,1.57703
333.42143,1.56447
333.18034,1.54994
332.93926,1.53833
332.69817,1.52927
332.45709,1.52168
332.21600,1.51716
331.97492,1.51758
331.73383,1.52275
331.49274,1.53101
331.25166,1.53981
331.01057,1.54594
330.76949,1.54762
330.52840,1.54620
330.28732,1.54352
330.04623,1.54083
329.80515,1.54127
329.56406,1.54673
329.32297,1.55016
329.08189,1.53746
328.84080,1.50410
328.59972,1.46829
328.35863,1.45993
328.11755,1.49559
327.87646,1.56235
327.63537,1.62184
327.39429,1.63766
327.15320,1.60810
326.91212,1.56415
326.67103,1.53679
326.42995,1.53448
326.18886,1.54428
325.94778,1.54908
325.70669,1.54416
325.46560,1.53582
325.22452,1.52816
324.98343,1.51767
324.74235,1.50053
324.50126,1.47913
324.26018,1.45920
324.01909,1.44538
323.77800,1.44123
323.53692,1.44849
323.29583,1.46429
323.05475,1.48402
322.81366,1.50618
322.57258,1.52951
322.33149,1.54962
322.09041,1.56096
321.84932,1.56091
321.60823,1.55011
321.36715,1.53101
321.12606,1.50973
320.88498,1.49626
320.64389,1.49790
320.40281,1.51341
320.16172,1.53559
319.92063,1.55808
319.67955,1.57792
319.43846,1.59365
319.19738,1.60232
318.95629,1.60239
318.71521,1.59810
318.47412,1.59420
318.23304,1.58955
317.99195,1.58036
317.75086,1.56794
317.50978,1.56024
317.26869,1.56404
317.02761,1.57522
316.78652,1.57955
316.54544,1.56591
316.30435,1.53994
316.06326,1.52133
315.82218,1.52643
315.58109,1.55474
315.34001,1.58836
315.09892,1.60271
314.85784,1.58339
314.61675,1.53763
314.37566,1.48785
314.13458,1.45348
313.89349,1.44099
313.65241,1.44762
313.41132,1.46852
313.17024,1.49801
312.92915,1.52730
312.68807,1.54572
312.44698,1.54781
312.20589,1.53845
311.96481,1.52626
311.72372,1.51387
311.48264,1.49952
311.24155,1.48570
311.00047,1.47907
310.75938,1.48298
310.51829,1.49549
310.27721,1.51242
310.03612,1.52903
309.79504,1.54171
309.55395,1.54931
309.31287,1.55197
309.07178,1.55080
308.83070,1.55041
308.58961,1.55800
308.34852,1.57747
308.10744,1.60421
307.86635,1.62563
307.62527,1.63033
307.38418,1.61951
307.14310,1.60556
306.90201,1.59946
306.66092,1.60264
306.41984,1.60898
306.17875,1.61040
305.93767,1.60000
305.69658,1.57454
305.45550,1.53820
305.21441,1.50150
304.97333,1.47396
304.73224,1.45974
304.49115,1.45950
304.25007,1.47293
304.00898,1.49821
303.76790,1.52987
303.52681,1.55860
303.28573,1.57542
303.04464,1.57730
302.80355,1.56928
302.56247,1.56076
302.32138,1.56079
302.08030,1.57491
301.83921,1.60141
301.59813,1.63032
301.35704,1.64981
301.11596,1.65252
300.87487,1.63550
300.63378,1.60022
300.39270,1.55609
300.15161,1.51968
299.91053,1.50590
299.66944,1.51656
299.42836,1.53831
299.18727,1.55326
298.94618,1.55104
298.70510,1.53220
298.46401,1.50563
298.22293,1.48466
297.98184,1.48110
297.74076,1.49859
297.49967,1.52907
297.25859,1.55611
297.01750,1.56575
296.77641,1.55673
296.53533,1.53899
296.29424,1.52402
296.05316,1.51831
295.81207,1.52181
295.57099,1.52831
295.32990,1.52906
295.08881,1.51915
294.84773,1.49960
294.60664,1.47495
294.36556,1.45102
294.12447,1.43290
293.88339,1.42324
293.64230,1.42194
293.40121,1.42702
293.16013,1.43604
292.91904,1.44632
292.67796,1.45418
292.43687,1.45630
292.19579,1.45347
291.95470,1.45079
291.71362,1.45170
291.47253,1.45379
291.23144,1.45257
290.99036,1.44728
290.74927,1.44093
290.50819,1.43645
290.26710,1.43511
290.02602,1.43836
289.78493,1.44831
289.54384,1.46425
289.30276,1.48027
289.06167,1.48921
288.82059,1.48865
288.57950,1.48175
288.33842,1.47390
288.09733,1.47009
287.85625,1.47294
287.61516,1.48118
287.37407,1.49056
287.13299,1.49685
286.89190,1.49793
286.65082,1.49403
286.40973,1.48701
286.16865,1.47918
285.92756,1.47289
285.68647,1.47081
285.44539,1.47552
285.20430,1.48771
284.96322,1.50497
284.72213,1.52201
284.48105,1.53200
284.23996,1.52869
283.99888,1.50942
283.75779,1.47863
283.51670,1.44716
283.27562,1.42484
283.03453,1.41398
282.79345,1.41075
282.55236,1.41167
282.31128,1.41724
282.07019,1.42903
281.82910,1.44546
281.58802,1.46258
281.34693,1.47818
281.10585,1.49295
280.86476,1.50837
280.62368,1.52435
280.38259,1.53713
280.14151,1.53952
279.90042,1.52691
279.65933,1.50327
279.41825,1.47806
279.17716,1.45796
278.93608,1.44386
278.69499,1.43566
278.45391,1.43629
278.21282,1.44787
277.97173,1.46592
277.73065,1.48153
277.48956,1.48921
277.24848,1.49055
277.00739,1.49190
276.76631,1.49914
276.52522,1.51336
276.28414,1.52903
276.04305,1.53712
275.80196,1.53269
275.56088,1.51895
275.31979,1.50391
275.07871,1.49507
274.83762,1.49519
274.59654,1.50120
274.35545,1.50726
274.11436,1.50942
273.87328,1.50773
273.63219,1.50451
273.39111,1.50226
273.15002,1.50236
272.90894,1.50426
272.66785,1.50647
272.42676,1.50904
272.18568,1.51423
271.94459,1.52379
271.70351,1.53596
271.46242,1.54505
271.22134,1.54485
270.98025,1.53396
270.73917,1.51729
270.49808,1.50376
270.25699,1.50159
270.01591,1.51172
269.77482,1.52533
269.53374,1.53054
269.29265,1.52210
269.05157,1.50303
268.81048,1.47959
268.56939,1.45797
268.32831,1.44340
268.08722,1.43833
267.84614,1.44121
267.60505,1.44854
267.36397,1.45845
267.12288,1.47088
266.88180,1.48354
266.64071,1.49000
266.39962,1.48407
266.15854,1.46712
265.91745,1.45066
265.67637,1.44908
265.43528,1.46840
265.19420,1.50245
264.95311,1.53880
264.71202,1.56768
264.47094,1.58507
264.22985,1.59026
263.98877,1.58437
263.74768,1.57188
263.50660,1.56074
263.26551,1.55812
263.02443,1.56644
262.78334,1.58447
262.54225,1.61028
262.30117,1.63961
262.06008,1.66279
261.81900,1.66952
261.57791,1.65830
261.33683,1.63812
261.09574,1.62081
260.85465,1.61340
260.61357,1.61595
260.37248,1.62222
260.13140,1.62226
259.89031,1.60794
259.64923,1.57860
259.40814,1.54177
259.16706,1.50754
258.92597,1.48197
258.68488,1.46599
258.44380,1.45925
258.20271,1.46239
257.96163,1.47332
257.72054,1.48353
257.47946,1.48186
257.23837,1.46410
256.99728,1.43776
256.75620,1.41580
256.51511,1.40624
256.27403,1.40741
256.03294,1.41163
255.79186,1.41348
255.55077,1.41446
255.30968,1.41868
255.06860,1.42627
254.82751,1.43372
254.58643,1.43885
254.34534,1.44168
254.10426,1.44073
253.86317,1.43219
253.62209,1.41537
253.38100,1.39642
253.13991,1.38420
252.89883,1.38390
252.65774,1.39387
252.41666,1.40667
252.17557,1.41339
251.93449,1.40866
251.69340,1.39292
251.45231,1.37053
251.21123,1.34679
250.97014,1.32611
250.72906,1.31143
250.48797,1.30430
250.24689,1.30495
250.00580,1.31134
249.76472,1.31827
249.52363,1.31937
249.28254,1.31194
249.04146,1.29949
248.80037,1.28829
248.55929,1.28237
248.31820,1.28257
248.07712,1.28777
247.83603,1.29488
247.59494,1.29964
247.35386,1.30028
247.11277,1.29950
246.87169,1.30026
246.63060,1.30037
246.38952,1.29332
246.14843,1.27581
245.90735,1.25329
245.66626,1.23655
245.42517,1.23274
245.18409,1.24005
244.94300,1.25001
244.70192,1.25408
244.46083,1.24863
244.21975,1.23582
243.97866,1.22130
243.73757,1.21054
243.49649,1.20581
243.25540,1.20565
243.01432,1.20666
242.77323,1.20634
242.53215,1.20464
242.29106,1.20307
242.04998,1.20203
241.80889,1.19949
241.56780,1.19266
241.32672,1.18072
241.08563,1.16569
240.84455,1.15089
240.60346,1.13861
240.36238,1.12931
240.12129,1.12251
239.88020,1.11805
239.63912,1.11587
239.39803,1.11499
239.15695,1.11356
238.91586,1.11013
238.67478,1.10464
238.43369,1.09817
238.19261,1.09212
237.95152,1.08771
237.71043,1.08593
237.46935,1.08778
237.22826,1.09391
236.98718,1.10381
236.74609,1.11499
236.50501,1.12344
236.26392,1.12597
236.02283,1.12235
235.78175,1.11510
235.54066,1.10758
235.29958,1.10267
235.05849,1.10202
234.81741,1.10560
234.57632,1.11162
234.33523,1.11734
234.09415,1.12030
233.85306,1.11931
233.61198,1.11497
233.37089,1.10950
233.12981,1.10551
232.88872,1.10422
232.64764,1.10459
232.40655,1.10495
232.16546,1.10527
231.92438,1.10688
231.68329,1.10997
231.44221,1.11333
231.20112,1.11685
230.96004,1.12221
230.71895,1.12980
230.47786,1.13627
230.23678,1.13724
229.99569,1.13265
229.75461,1.12808
229.51352,1.12973
229.27244,1.13852
229.03135,1.14970
228.79027,1.15704
228.54918,1.15737
228.30809,1.15171
228.06701,1.14244
227.82592,1.13050
227.58484,1.11681
227.34375,1.10526
227.10267,1.10090
226.86158,1.10520
226.62049,1.11429
226.37941,1.12191
226.13832,1.12389
225.89724,1.12037
225.65615,1.11425
225.41507,1.10776
225.17398,1.10093
224.93290,1.09297
224.69181,1.08412
224.45072,1.07527
224.20964,1.06656
223.96855,1.05775
223.72747,1.04995
223.48638,1.04534
223.24530,1.04434
223.00421,1.04415
222.76312,1.04130
222.52204,1.03527
222.28095,1.02904
222.03987,1.02569
221.79878,1.02534
221.55770,1.02594
221.31661,1.02599
221.07553,1.02520
220.83444,1.02331
220.59335,1.01985
220.35227,1.01534
220.11118,1.01139
219.87010,1.00930
219.62901,1.00895
219.38793,1.00953
219.14684,1.01115
218.90575,1.01517
218.66467,1.02222
218.42358,1.03061
218.18250,1.03716
217.94141,1.03958
217.70033,1.03783
217.45924,1.03377
217.21816,1.02983
216.97707,1.02743
216.73598,1.02616
216.49490,1.02472
216.25381,1.02233
216.01273,1.01936
215.77164,1.01665
215.53056,1.01486
215.28947,1.01460
215.04838,1.01649
214.80730,1.02077
214.56621,1.02691
214.32513,1.03384
214.08404,1.04079
213.84296,1.04812
213.60187,1.05686
213.36078,1.06725
213.11970,1.07781
212.87861,1.08645
212.63753,1.09201
212.39644,1.09423
212.15536,1.09332
211.91427,1.09050
211.67319,1.08865
211.43210,1.09084
211.19101,1.09828
210.94993,1.10990
210.70884,1.12364
210.46776,1.13742
210.22667,1.14924
209.98559,1.15756
209.74450,1.16215
209.50341,1.16463
209.26233,1.16727
209.02124,1.17074
208.78016,1.17312
208.53907,1.17187
208.29799,1.16679
208.05690,1.16019
207.81582,1.15454
207.57473,1.15057
207.33364,1.14724
207.09256,1.14282
206.85147,1.13667
206.61039,1.12996
206.36930,1.12453
206.12822,1.12110
205.88713,1.11898
205.64604,1.11716
205.40496,1.11528
205.16387,1.11328
204.92279,1.11043
204.68170,1.10588
204.44062,1.10000
204.19953,1.09438
203.95845,1.09052
203.71736,1.09001
203.47627,1.09563
203.23519,1.10946
202.99410,1.12776
202.75302,1.13952
202.51193,1.13460
202.27085,1.11365
202.02976,1.08567
201.78867,1.05892
201.54759,1.03682
201.30650,1.01891
201.06542,1.00336
200.82433,0.98967
200.58325,0.97950
200.34216,0.97480
200.10108,0.97539
199.85999,0.97864
199.61890,0.98113
199.37782,0.98055
199.13673,0.97648
198.89565,0.96962
198.65456,0.96072
198.41348,0.95085
198.17239,0.94188
197.93130,0.93557
197.69022,0.93189
197.44913,0.92906
197.20805,0.92572
196.96696,0.92248
196.72588,0.92063
196.48479,0.91997
196.24370,0.91885
196.00262,0.91625
195.76153,0.91300
195.52045,0.91053
195.27936,0.90896
195.03828,0.90668
194.79719,0.90159
194.55611,0.89302
194.31502,0.88276
194.07393,0.87416
193.83285,0.86979
193.59176,0.86986
193.35068,0.87237
193.10959,0.87473
192.86851,0.87532
192.62742,0.87375
192.38633,0.87004
192.14525,0.86426
191.90416,0.85711
191.66308,0.85049
191.42199,0.84702
191.18091,0.84851
190.93982,0.85454
190.69874,0.86255
190.45765,0.86927
190.21656,0.87244
189.97548,0.87178
189.73439,0.86877
189.49331,0.86564
189.25222,0.86387
189.01114,0.86340
188.77005,0.86309
188.52896,0.86176
188.28788,0.85914
188.04679,0.85614
187.80571,0.85425
187.56462,0.85438
187.32354,0.85621
187.08245,0.85866
186.84137,0.86054
186.60028,0.86100
186.35919,0.86009
186.11811,0.85916
185.87702,0.85988
185.63594,0.86264
185.39485,0.86632
185.15377,0.86995
184.91268,0.87396
184.67159,0.87946
184.43051,0.88687
184.18942,0.89562
183.94834,0.90454
183.70725,0.91269
183.46617,0.92011
183.22508,0.92745
182.98400,0.93434
182.74291,0.93865
182.50182,0.93832
182.26074,0.93388
182.01965,0.92911
181.77857,0.92851
181.53748,0.93370
181.29640,0.94202
181.05531,0.94909
180.81422,0.95267
180.57314,0.95317
180.33205,0.95125
180.09097,0.94657
179.84988,0.93919
179.60880,0.93069
179.36771,0.92339
179.12663,0.91871
178.88554,0.91681
178.64445,0.91727
178.40337,0.91976
178.16228,0.92390
177.92120,0.92842
177.68011,0.93074
177.43903,0.92853
177.19794,0.92225
176.95685,0.91528
176.71577,0.91085
176.47468,0.90932
176.23360,0.90834
175.99251,0.90528
175.75143,0.89984
175.51034,0.89418
175.26925,0.89025
175.02817,0.88767
174.78708,0.88480
174.54600,0.88132
174.30491,0.87888
174.06383,0.87869
173.82274,0.87934
173.58166,0.87769
173.34057,0.87193
173.09948,0.86309
172.85840,0.85326
172.61731,0.84355
172.37623,0.83432
172.13514,0.82645
171.89406,0.82136
171.65297,0.81977
171.41188,0.82110
171.17080,0.82384
170.92971,0.82616
170.68863,0.82625
170.44754,0.82307
170.20646,0.81752
169.96537,0.81252
169.72429,0.81074
169.48320,0.81214
169.24211,0.81392
169.00103,0.81279
168.75994,0.80747
168.51886,0.79904
168.27777,0.78936
168.03669,0.77990
167.79560,0.77177
167.55451,0.76602
167.31343,0.76338
167.07234,0.76363
166.83126,0.76550
166.59017,0.76719
166.34909,0.76722
166.10800,0.76529
165.86692,0.76221
165.62583,0.75894
165.38474,0.75564
165.14366,0.75188
164.90257,0.74754
164.66149,0.74290
164.42040,0.73801
164.17932,0.73273
163.93823,0.72750
163.69714,0.72328
163.45606,0.72022
163.21497,0.71711
162.97389,0.71253
162.73280,0.70632
162.49172,0.69975
162.25063,0.69447
162.00955,0.69142
161.76846,0.69051
161.52737,0.69066
161.28629,0.69034
161.04520,0.68836
160.80412,0.68457
160.56303,0.67997
160.32195,0.67586
160.08086,0.67298
159.83977,0.67103
159.59869,0.66897
159.35760,0.66583
159.11652,0.66165
158.87543,0.65756
158.63435,0.65499
158.39326,0.65470
158.15218,0.65610
157.91109,0.65731
157.67000,0.65644
157.42892,0.65329
157.18783,0.64933
156.94675,0.64608
156.70566,0.64386
156.46458,0.64200
156.22349,0.63968
155.98240,0.63655
155.74132,0.63298
155.50023,0.62984
155.25915,0.62761
155.01806,0.62594
154.77698,0.62420
154.53589,0.62246
154.29480,0.62130
154.05372,0.62083
153.81263,0.62026
153.57155,0.61859
153.33046,0.61556
153.08938,0.61185
152.84829,0.60837
152.60721,0.60529
152.36612,0.60177
152.12503,0.59695
151.88395,0.59114
151.64286,0.58609
151.40178,0.58391
151.16069,0.58536
150.91961,0.58918
150.67852,0.59282
150.43743,0.59406
150.19635,0.59242
149.95526,0.58909
149.71418,0.58568
149.47309,0.58304
149.23201,0.58097
148.99092,0.57870
148.74984,0.57585
148.50875,0.57292
148.26766,0.57106
148.02658,0.57109
147.78549,0.57271
147.54441,0.57458
147.30332,0.57532
147.06224,0.57439
146.82115,0.57256
146.58006,0.57176
146.33898,0.57413
146.09789,0.58038
145.85681,0.58860
145.61572,0.59519
145.37464,0.59781
145.13355,0.59732
144.89247,0.59706
144.65138,0.59983
144.41029,0.60553
144.16921,0.61145
143.92812,0.61481
143.68704,0.61499
143.44595,0.61350
143.20487,0.61225
142.96378,0.61221
142.72269,0.61346
142.48161,0.61578
142.24052,0.61894
141.99944,0.62254
141.75835,0.62615
141.51727,0.62951
141.27618,0.63215
141.03510,0.63308
140.79401,0.63137
140.55292,0.62736
140.31184,0.62278
140.07075,0.61933
139.82967,0.61719
139.58858,0.61500
139.34750,0.61119
139.10641,0.60528
138.86532,0.59802
138.62424,0.59028
138.38315,0.58234
138.14207,0.57438
137.90098,0.56715
137.65990,0.56156
137.41881,0.55780
137.17772,0.55525
136.93664,0.55337
136.69555,0.55198
136.45447,0.55070
136.21338,0.54830
135.97230,0.54354
135.73121,0.53646
135.49013,0.52882
135.24904,0.52272
135.00795,0.51898
134.76687,0.51695
134.52578,0.51546
134.28470,0.51375
134.04361,0.51160
133.80253,0.50913
133.56144,0.50677
133.32035,0.50516
133.07927,0.50444
132.83818,0.50359
132.59710,0.50105
132.35601,0.49622
132.11493,0.48992
131.87384,0.48341
131.63276,0.47748
131.39167,0.47246
131.15058,0.46866
130.90950,0.46638
130.66841,0.46569
130.42733,0.46607
130.18624,0.46642
129.94516,0.46546
129.70407,0.46242
129.46298,0.45761
129.22190,0.45227
128.98081,0.44778
128.73973,0.44477
128.49864,0.44308
128.25756,0.44261
128.01647,0.44389
127.77539,0.44764
127.53430,0.45354
127.29321,0.45961
127.05213,0.46305
126.81104,0.46207
126.56996,0.45731
126.32887,0.45133
126.08779,0.44667
125.84670,0.44418
125.60561,0.44323
125.36453,0.44302
125.12344,0.44314
124.88236,0.44310
124.64127,0.44228
124.40019,0.44097
124.15910,0.44064
123.91802,0.44258
123.67693,0.44662
123.43584,0.45133
123.19476,0.45537
122.95367,0.45873
122.71259,0.46294
122.47150,0.46960
122.23042,0.47817
121.98933,0.48557
121.74824,0.48884
121.50716,0.48796
121.26607,0.48550
121.02499,0.48431
120.78390,0.48602
120.54282,0.49043
120.30173,0.49566
120.06065,0.49939
119.81956,0.50074
119.57847,0.50106
119.33739,0.50246
119.09630,0.50594
118.85522,0.51099
118.61413,0.51664
118.37305,0.52193
118.13196,0.52553
117.89087,0.52619
117.64979,0.52422
117.40870,0.52160
117.16762,0.51976
116.92653,0.51805
116.68545,0.51480
116.44436,0.50977
116.20327,0.50489
115.96219,0.50254
115.72110,0.50333
115.48002,0.50538
115.23893,0.50568
114.99785,0.50231
114.75676,0.49568
114.51568,0.48797
114.27459,0.48147
114.03350,0.47758
113.79242,0.47657
113.55133,0.47754
113.31025,0.47878
113.06916,0.47869
112.82808,0.47658
112.58699,0.47263
112.34590,0.46752
112.10482,0.46235
111.86373,0.45841
111.62265,0.45647
111.38156,0.45631
111.14048,0.45711
110.89939,0.45823
110.65831,0.45941
110.41722,0.46029
110.17613,0.46003
109.93505,0.45755
109.69396,0.45251
109.45288,0.44609
109.21179,0.44037
108.97071,0.43674
108.72962,0.43472
108.48853,0.43245
108.24745,0.42832
108.00636,0.42238
107.76528,0.41596
107.52419,0.41015
107.28311,0.40471
107.04202,0.39844
106.80094,0.39071
106.55985,0.38273
106.31876,0.37706
106.07768,0.37552
105.83659,0.37756
105.59551,0.38053
105.35442,0.38160
105.11334,0.37935
104.87225,0.37381
104.63116,0.36580
104.39008,0.35674
104.14899,0.34878
103.90791,0.34399
103.66682,0.34275
103.42574,0.34326
103.18465,0.34286
102.94357,0.34000
102.70248,0.33505
102.46139,0.32963
102.22031,0.32532
101.97922,0.32291
101.73814,0.32239
101.49705,0.32362
101.25597,0.32674
101.01488,0.33192
100.77379,0.33838
100.53271,0.34411
100.29162,0.34714
100.05054,0.34740
99.80945,0.34681
99.56837,0.34710
99.32728,0.34811
99.08620,0.34794
98.84511,0.34493
98.60402,0.33936
98.36294,0.33360
98.12185,0.33044
97.88077,0.33117
97.63968,0.33479
97.39860,0.33923
97.15751,0.34315
96.91642,0.34656
96.67534,0.34989
96.43425,0.35293
96.19317,0.35504
95.95208,0.35585
95.71100,0.35546
95.46991,0.35425
95.22882,0.35309
94.98774,0.35341
94.74665,0.35646
94.50557,0.36202
94.26448,0.36818
94.02340,0.37246
93.78231,0.37339
93.54123,0.37100
93.30014,0.36637
93.05905,0.36075
92.81797,0.35520
92.57688,0.35043
92.33580,0.34685
92.09471,0.34443
91.85363,0.34280
91.61254,0.34159
91.37145,0.34097
91.13037,0.34144
90.88928,0.34294
90.64820,0.34453
90.40711,0.34541
90.16603,0.34603
89.92494,0.34761
89.68386,0.35077
89.44277,0.35540
89.20168,0.36190
88.96060,0.37176
88.71951,0.38626
88.47843,0.40478
88.23734,0.42446
87.99626,0.44201
87.75517,0.45668
87.51408,0.47128
87.27300,0.48916
87.03191,0.51027
86.79083,0.53082
86.54974,0.54683
86.30866,0.55712
86.06757,0.56281
85.82649,0.56525
85.58540,0.56524
85.34431,0.56350
85.10323,0.56065
84.86214,0.55646
84.62106,0.54964
84.37997,0.53854
84.13889,0.52243
83.89780,0.50239
83.65671,0.48139
83.41563,0.46308
83.17454,0.45000
82.93346,0.44238
82.69237,0.43824
82.45129,0.43453
82.21020,0.42859
81.96912,0.41939
81.72803,0.40769
81.48694,0.39503
81.24586,0.38306
81.00477,0.37330
80.76369,0.36676
80.52260,0.36291
80.28152,0.35970
80.04043,0.35515
79.79934,0.34909
79.55826,0.34293
79.31717,0.33798
79.07609,0.33453
78.83500,0.33209
78.59392,0.32980
78.35283,0.32661
78.11174,0.32186
77.87066,0.31600
77.62957,0.31021
77.38849,0.30529
77.14740,0.30117
76.90632,0.29751
76.66523,0.29436
76.42415,0.29173
76.18306,0.28881
75.94197,0.28437
75.70089,0.27819
75.45980,0.27174
75.21872,0.26675
74.97763,0.26335
74.73655,0.26003
74.49546,0.25539
74.25437,0.24973
74.01329,0.24479
73.77220,0.24199
73.53112,0.24133
73.29003,0.24173
73.04895,0.24227
72.80786,0.24279
72.56678,0.24329
72.32569,0.24311
72.08460,0.24110
71.84352,0.23669
71.60243,0.23095
71.36135,0.22607
71.12026,0.22338
70.87918,0.22241
70.63809,0.22217
70.39700,0.22296
70.15592,0.22595
69.91483,0.23147
69.67375,0.23860
69.43266,0.24593
69.19158,0.25167
68.95049,0.25386
68.70941,0.25205
68.46832,0.24849
68.22723,0.24630
67.98615,0.24653
67.74506,0.24802
67.50398,0.24939
67.26289,0.25025
67.02181,0.25081
66.78072,0.25168
66.53963,0.25389
66.29855,0.25793
66.05746,0.26280
65.81638,0.26675
65.57529,0.26894
65.33421,0.26968
65.09312,0.26931
64.85204,0.26764
64.61095,0.26442
64.36986,0.26011
64.12878,0.25599
63.88769,0.25321
63.64661,0.25142
63.40552,0.24858
63.16444,0.24330
62.92335,0.23643
62.68226,0.22938
62.44118,0.22238
62.20009,0.21553
61.95901,0.20992
61.71792,0.20627
61.47684,0.20373
61.23575,0.20097
60.99467,0.19738
60.75358,0.19315
60.51249,0.18892
60.27141,0.18510
60.03032,0.18143
59.78924,0.17799
59.54815,0.17646
59.30707,0.17887
59.06598,0.18537
58.82489,0.19428
58.58381,0.20390
58.34272,0.21380
58.10164,0.22480
57.86055,0.23781
57.61947,0.25235
57.37838,0.26620
57.13729,0.27665
56.89621,0.28207
56.65512,0.28271
56.41404,0.28032
56.17295,0.27674
55.93187,0.27311
55.69078,0.27025
55.44970,0.26909
55.20861,0.27036
54.96752,0.27420
54.72644,0.27986
54.48535,0.28559
54.24427,0.28884
54.00318,0.28735
53.76210,0.28108
53.52101,0.27296
53.27992,0.26640
53.03884,0.26182
52.79775,0.25693
52.55667,0.25047
52.31558,0.24427
52.07450,0.24091
51.83341,0.24049
51.59233,0.24016
51.35124,0.23657
51.11015,0.22795
50.86907,0.21498
50.62798,0.20112
50.38690,0.19140
50.14581,0.18947
49.90473,0.19553
49.66364,0.20711
49.42255,0.22047
49.18147,0.23144
48.94038,0.23649
48.69930,0.23432
48.45821,0.22647
48.21713,0.21622
47.97604,0.20662
47.73496,0.19933
47.49387,0.19519
47.25278,0.19524
47.01170,0.19972
46.77061,0.20571
46.52953,0.20772
46.28844,0.20255
46.04736,0.19300
45.80627,0.18491
45.56518,0.18148
45.32410,0.18256
45.08301,0.18806
44.84193,0.19880
44.60084,0.21342
44.35976,0.22661
44.11867,0.23213
43.87759,0.22740
43.63650,0.21555
43.39541,0.20403
43.15433,0.20015
42.91324,0.20555
42.67216,0.21501
42.43107,0.22183
42.18999,0.22337
41.94890,0.22073
41.70781,0.21508
41.46673,0.20692
41.22564,0.19799
40.98456,0.19169
40.74347,0.19106
40.50239,0.19687
40.26130,0.20743
40.02022,0.21894
39.77913,0.22570
39.53804,0.22216
39.29696,0.20735
39.05587,0.18702
38.81479,0.16937
38.57370,0.15906
38.33262,0.15654
38.09153,0.16178
37.85044,0.17511
37.60936,0.19375
37.36827,0.21082
37.12719,0.22078
36.88610,0.22426
36.64502,0.22514
36.40393,0.22523
36.16284,0.22435
35.92176,0.22369
35.68067,0.22613
35.43959,0.23289
35.19850,0.24155
34.95742,0.24820
34.71633,0.25138
34.47525,0.25361
34.23416,0.25885
33.99307,0.26763
33.75199,0.27602
33.51090,0.28078
33.26982,0.28371
33.02873,0.28902
32.78765,0.29603
32.54656,0.29667
32.30547,0.28270
32.06439,0.25571
31.82330,0.22924
31.58222,0.21939
31.34113,0.23025
31.10005,0.24872
30.85896,0.25581
30.61788,0.24305
30.37679,0.21936
30.13570,0.20383
29.89462,0.20944
29.65353,0.23124
29.41245,0.25211
29.17136,0.25969
28.93028,0.25513
28.68919,0.24610
28.44810,0.23686
28.20702,0.22797
27.96593,0.22099
27.72485,0.21855
27.48376,0.21852
27.24268,0.21244
27.00159,0.19435
26.76051,0.16840
26.51942,0.14477
26.27833,0.13001
26.03725,0.12228
25.79616,0.11379
25.55508,0.09609
25.31399,0.06489
25.07291,0.02547
24.83182,-0.00470
24.59073,-0.00772
24.34965,0.01248
24.10856,0.02924
23.86748,0.02191
23.62639,-0.00033
23.38531,-0.00897
23.14422,0.01043
22.90314,0.04730
22.66205,0.08502
22.42096,0.11990
22.17988,0.15730
21.93879,0.19254
21.69771,0.20590
21.45662,0.18066
21.21554,0.12302
20.97445,0.05964
20.73336,0.01274
20.49228,-0.01738
20.25119,-0.03976
20.01011,-0.05105
19.76902,-0.03935
19.52794,-0.00702
19.28685,0.02494
19.04576,0.03531
18.80468,0.02085
18.56359,0.00006
18.32251,-0.00207
18.08142,0.02279
17.84034,0.05994
17.59925,0.08905
17.35817,0.10590
17.11708,0.12622
16.87599,0.16792
16.63491,0.22720
16.39382,0.27433
16.15274,0.27437
15.91165,0.20869
15.67057,0.09029
15.42948,-0.02990
15.18839,-0.08605
14.94731,-0.05580
14.70622,0.01369
14.46514,0.05459
14.22405,0.02819
13.98297,-0.05266
13.74188,-0.13470
13.50080,-0.17183
13.25971,-0.16868
13.01862,-0.15781
12.77754,-0.15026
12.53645,-0.13564
12.29537,-0.12002
12.05428,-0.13632
11.81320,-0.21694
11.57211,-0.35229
11.33102,-0.47430
11.08994,-0.50599
10.84885,-0.45650
10.60777,-0.42683
10.36668,-0.49704
10.12560,-0.64009
9.88451,-0.72323
9.64343,-0.63325
9.40234,-0.42718
9.16125,-0.22579
8.92017,-0.10366
8.67908,-0.07464
8.43800,-0.10998
8.19691,-0.16655
7.95583,-0.21520
7.71474,-0.24793
7.47365,-0.27531
7.23257,-0.32002
6.99148,-0.39759
6.75040,-0.49014
6.50931,-0.55220
6.26823,-0.56260
6.02714,-0.53202
5.78606,-0.46667
5.54497,-0.37605
5.30388,-0.28445
5.06280,-0.22124
4.82171,-0.20579
4.58063,-0.22859
4.33954,-0.25912
4.09846,-0.27814
3.85737,-0.28883
3.61628,-0.30695
3.37520,-0.35309
3.13411,-0.43645
2.89303,-0.52823
2.65194,-0.55559
2.41086,-0.47927
2.16977,-0.40614
1.92869,-0.42325
1.68760,-0.50887
1.44651,-0.57499
1.20543,-0.57734
0.96434,-0.52169
0.72326,-0.41709
0.48217,-0.27907
0.24109,-0.13019
-0.00000,0.01629
