#X		#Y		#Wave		#Intensity
17098.002181	-31879.756583	2018.238281	43.812302
17098.002181	-31879.756583	2016.708984	-42.414173
17098.002181	-31879.756583	2015.179688	-65.798233
17098.002181	-31879.756583	2013.648438	-16.876366
17098.002181	-31879.756583	2012.119141	295.431335
17098.002181	-31879.756583	2010.587891	-7.718455
17098.002181	-31879.756583	2009.056641	-125.830986
17098.002181	-31879.756583	2007.525391	61.785255
17098.002181	-31879.756583	2005.994141	47.315746
17098.002181	-31879.756583	2004.462891	243.748535
17098.002181	-31879.756583	2002.929688	63.598141
17098.002181	-31879.756583	2001.396484	236.238708
17098.002181	-31879.756583	1999.865234	100.942650
17098.002181	-31879.756583	1998.332031	-113.824059
17098.002181	-31879.756583	1996.796875	87.565880
17098.002181	-31879.756583	1995.263672	65.935555
17098.002181	-31879.756583	1993.728516	18.600914
17098.002181	-31879.756583	1992.195313	141.060684
17098.002181	-31879.756583	1990.660156	-149.904755
17098.002181	-31879.756583	1989.125000	-106.570679
17098.002181	-31879.756583	1987.589844	85.240776
17098.002181	-31879.756583	1986.052734	-46.630226
17098.002181	-31879.756583	1984.517578	43.204716
17098.002181	-31879.756583	1982.980469	112.172180
17098.002181	-31879.756583	1981.445313	121.219322
17098.002181	-31879.756583	1979.908203	176.115891
17098.002181	-31879.756583	1978.369141	-98.811249
17098.002181	-31879.756583	1976.832031	29.857061
17098.002181	-31879.756583	1975.294922	-18.420914
17098.002181	-31879.756583	1973.755859	-1.382815
17098.002181	-31879.756583	1972.216797	30.542187
17098.002181	-31879.756583	1970.677734	-133.840118
17098.002181	-31879.756583	1969.138672	43.170513
17098.002181	-31879.756583	1967.599609	231.727417
17098.002181	-31879.756583	1966.058594	-150.993652
17098.002181	-31879.756583	1964.519531	-130.794281
17098.002181	-31879.756583	1962.978516	105.469246
17098.002181	-31879.756583	1961.437500	-92.955215
17098.002181	-31879.756583	1959.896484	-115.891151
17098.002181	-31879.756583	1958.355469	-38.056606
17098.002181	-31879.756583	1956.812500	43.206043
17098.002181	-31879.756583	1955.271484	-204.463028
17098.002181	-31879.756583	1953.728516	53.850494
17098.002181	-31879.756583	1952.185547	51.353580
17098.002181	-31879.756583	1950.642578	-100.013741
17098.002181	-31879.756583	1949.099609	-66.498940
17098.002181	-31879.756583	1947.554688	-73.306480
17098.002181	-31879.756583	1946.011719	213.081894
17098.002181	-31879.756583	1944.466797	119.110336
17098.002181	-31879.756583	1942.921875	70.632889
17098.002181	-31879.756583	1941.376953	35.253616
17098.002181	-31879.756583	1939.832031	-66.310127
17098.002181	-31879.756583	1938.285156	92.703011
17098.002181	-31879.756583	1936.740234	316.428436
17098.002181	-31879.756583	1935.193359	147.318130
17098.002181	-31879.756583	1933.646484	149.713486
17098.002181	-31879.756583	1932.099609	317.036987
17098.002181	-31879.756583	1930.552734	195.158417
17098.002181	-31879.756583	1929.005859	92.791382
17098.002181	-31879.756583	1927.457031	108.453949
17098.002181	-31879.756583	1925.908203	363.149170
17098.002181	-31879.756583	1924.361328	267.456024
17098.002181	-31879.756583	1922.810547	297.781281
17098.002181	-31879.756583	1921.261719	434.622162
17098.002181	-31879.756583	1919.712891	429.463837
17098.002181	-31879.756583	1918.162109	396.932312
17098.002181	-31879.756583	1916.613281	196.696426
17098.002181	-31879.756583	1915.062500	296.474121
17098.002181	-31879.756583	1913.511719	278.541809
17098.002181	-31879.756583	1911.960938	312.189667
17098.002181	-31879.756583	1910.408203	286.215790
17098.002181	-31879.756583	1908.857422	165.172043
17098.002181	-31879.756583	1907.304688	206.856705
17098.002181	-31879.756583	1905.751953	-49.418427
17098.002181	-31879.756583	1904.199219	55.027748
17098.002181	-31879.756583	1902.646484	178.706451
17098.002181	-31879.756583	1901.093750	122.041107
17098.002181	-31879.756583	1899.539063	38.013500
17098.002181	-31879.756583	1897.984375	34.398865
17098.002181	-31879.756583	1896.431641	-30.413908
17098.002181	-31879.756583	1894.876953	-103.291000
17098.002181	-31879.756583	1893.320313	111.577774
17098.002181	-31879.756583	1891.765625	75.511963
17098.002181	-31879.756583	1890.210938	-66.686165
17098.002181	-31879.756583	1888.654297	138.138809
17098.002181	-31879.756583	1887.097656	122.710510
17098.002181	-31879.756583	1885.541016	132.882782
17098.002181	-31879.756583	1883.984375	-112.361572
17098.002181	-31879.756583	1882.425781	-208.306854
17098.002181	-31879.756583	1880.869141	56.775101
17098.002181	-31879.756583	1879.310547	-140.507050
17098.002181	-31879.756583	1877.751953	-182.217407
17098.002181	-31879.756583	1876.193359	-143.847351
17098.002181	-31879.756583	1874.634766	-81.579590
17098.002181	-31879.756583	1873.076172	17.391582
17098.002181	-31879.756583	1871.515625	-2.437539
17098.002181	-31879.756583	1869.957031	-116.984154
17098.002181	-31879.756583	1868.396484	183.372147
17098.002181	-31879.756583	1866.835938	-130.126175
17098.002181	-31879.756583	1865.275391	-96.102669
17098.002181	-31879.756583	1863.712891	-20.620245
17098.002181	-31879.756583	1862.152344	-41.421646
17098.002181	-31879.756583	1860.589844	-51.179188
17098.002181	-31879.756583	1859.027344	25.296444
17098.002181	-31879.756583	1857.464844	99.948578
17098.002181	-31879.756583	1855.902344	-111.964912
17098.002181	-31879.756583	1854.339844	179.798340
17098.002181	-31879.756583	1852.775391	87.490768
17098.002181	-31879.756583	1851.212891	137.283890
17098.002181	-31879.756583	1849.648438	23.826820
17098.002181	-31879.756583	1848.083984	-113.764908
17098.002181	-31879.756583	1846.519531	82.392189
17098.002181	-31879.756583	1844.953125	249.504776
17098.002181	-31879.756583	1843.388672	197.524872
17098.002181	-31879.756583	1841.822266	408.798584
17098.002181	-31879.756583	1840.255859	137.665955
17098.002181	-31879.756583	1838.689453	252.639893
17098.002181	-31879.756583	1837.123047	357.756775
17098.002181	-31879.756583	1835.556641	559.904724
17098.002181	-31879.756583	1833.988281	528.867126
17098.002181	-31879.756583	1832.419922	574.142273
17098.002181	-31879.756583	1830.853516	536.239502
17098.002181	-31879.756583	1829.285156	612.879883
17098.002181	-31879.756583	1827.714844	776.892517
17098.002181	-31879.756583	1826.146484	727.072998
17098.002181	-31879.756583	1824.578125	829.944641
17098.002181	-31879.756583	1823.007813	701.588257
17098.002181	-31879.756583	1821.437500	709.966003
17098.002181	-31879.756583	1819.867188	611.416016
17098.002181	-31879.756583	1818.296875	708.417480
17098.002181	-31879.756583	1816.724609	380.239594
17098.002181	-31879.756583	1815.154297	807.642273
17098.002181	-31879.756583	1813.582031	541.083313
17098.002181	-31879.756583	1812.009766	726.015625
17098.002181	-31879.756583	1810.437500	672.104309
17098.002181	-31879.756583	1808.865234	565.487122
17098.002181	-31879.756583	1807.292969	581.018860
17098.002181	-31879.756583	1805.718750	597.865540
17098.002181	-31879.756583	1804.144531	492.103394
17098.002181	-31879.756583	1802.570313	770.485840
17098.002181	-31879.756583	1800.996094	597.489075
17098.002181	-31879.756583	1799.421875	503.673431
17098.002181	-31879.756583	1797.847656	419.146118
17098.002181	-31879.756583	1796.271484	508.946747
17098.002181	-31879.756583	1794.697266	636.513184
17098.002181	-31879.756583	1793.121094	511.526184
17098.002181	-31879.756583	1791.544922	175.379837
17098.002181	-31879.756583	1789.966797	395.661591
17098.002181	-31879.756583	1788.390625	426.921783
17098.002181	-31879.756583	1786.812500	262.940338
17098.002181	-31879.756583	1785.236328	-88.236702
17098.002181	-31879.756583	1783.658203	373.214325
17098.002181	-31879.756583	1782.080078	180.012344
17098.002181	-31879.756583	1780.500000	290.675018
17098.002181	-31879.756583	1778.921875	41.606827
17098.002181	-31879.756583	1777.341797	165.953354
17098.002181	-31879.756583	1775.763672	245.665573
17098.002181	-31879.756583	1774.183594	29.176916
17098.002181	-31879.756583	1772.601563	40.311897
17098.002181	-31879.756583	1771.021484	55.922134
17098.002181	-31879.756583	1769.441406	101.305763
17098.002181	-31879.756583	1767.859375	13.595621
17098.002181	-31879.756583	1766.277344	52.110538
17098.002181	-31879.756583	1764.695313	-197.274765
17098.002181	-31879.756583	1763.113281	74.584030
17098.002181	-31879.756583	1761.531250	-156.266327
17098.002181	-31879.756583	1759.947266	67.565590
17098.002181	-31879.756583	1758.365234	134.732086
17098.002181	-31879.756583	1756.781250	92.679962
17098.002181	-31879.756583	1755.197266	-258.960602
17098.002181	-31879.756583	1753.613281	-195.689331
17098.002181	-31879.756583	1752.029297	72.406158
17098.002181	-31879.756583	1750.443359	122.460068
17098.002181	-31879.756583	1748.857422	35.047462
17098.002181	-31879.756583	1747.273438	21.543468
17098.002181	-31879.756583	1745.687500	-115.157661
17098.002181	-31879.756583	1744.099609	116.738800
17098.002181	-31879.756583	1742.513672	74.143799
17098.002181	-31879.756583	1740.927734	-61.609726
17098.002181	-31879.756583	1739.339844	125.331573
17098.002181	-31879.756583	1737.751953	58.441727
17098.002181	-31879.756583	1736.164063	128.325241
17098.002181	-31879.756583	1734.576172	15.373780
17098.002181	-31879.756583	1732.986328	1.379326
17098.002181	-31879.756583	1731.398438	171.272705
17098.002181	-31879.756583	1729.808594	235.474564
17098.002181	-31879.756583	1728.218750	19.501913
17098.002181	-31879.756583	1726.628906	157.193970
17098.002181	-31879.756583	1725.039063	69.825539
17098.002181	-31879.756583	1723.449219	211.763290
17098.002181	-31879.756583	1721.857422	243.434586
17098.002181	-31879.756583	1720.265625	45.525925
17098.002181	-31879.756583	1718.673828	387.835754
17098.002181	-31879.756583	1717.082031	192.744629
17098.002181	-31879.756583	1715.490234	386.924133
17098.002181	-31879.756583	1713.898438	-130.237335
17098.002181	-31879.756583	1712.304688	176.553802
17098.002181	-31879.756583	1710.710938	117.454391
17098.002181	-31879.756583	1709.117188	149.196762
17098.002181	-31879.756583	1707.523438	-7.445736
17098.002181	-31879.756583	1705.929688	146.290558
17098.002181	-31879.756583	1704.333984	58.360519
17098.002181	-31879.756583	1702.740234	-120.579361
17098.002181	-31879.756583	1701.144531	178.343491
17098.002181	-31879.756583	1699.548828	-112.097183
17098.002181	-31879.756583	1697.953125	-140.967651
17098.002181	-31879.756583	1696.355469	-248.282425
17098.002181	-31879.756583	1694.759766	7.579722
17098.002181	-31879.756583	1693.162109	-148.514023
17098.002181	-31879.756583	1691.564453	80.339973
17098.002181	-31879.756583	1689.966797	-190.178314
17098.002181	-31879.756583	1688.369141	-91.498245
17098.002181	-31879.756583	1686.771484	-219.765961
17098.002181	-31879.756583	1685.171875	-33.791706
17098.002181	-31879.756583	1683.572266	58.194244
17098.002181	-31879.756583	1681.974609	200.075378
17098.002181	-31879.756583	1680.373047	16.710703
17098.002181	-31879.756583	1678.773438	-126.027458
17098.002181	-31879.756583	1677.173828	309.181427
17098.002181	-31879.756583	1675.572266	64.735565
17098.002181	-31879.756583	1673.970703	145.093002
17098.002181	-31879.756583	1672.371094	119.204254
17098.002181	-31879.756583	1670.767578	74.489281
17098.002181	-31879.756583	1669.166016	165.503784
17098.002181	-31879.756583	1667.564453	87.925217
17098.002181	-31879.756583	1665.960938	355.014771
17098.002181	-31879.756583	1664.357422	562.678223
17098.002181	-31879.756583	1662.753906	364.836121
17098.002181	-31879.756583	1661.150391	366.555389
17098.002181	-31879.756583	1659.546875	552.133484
17098.002181	-31879.756583	1657.941406	723.554077
17098.002181	-31879.756583	1656.337891	475.843719
17098.002181	-31879.756583	1654.732422	788.879272
17098.002181	-31879.756583	1653.126953	648.635254
17098.002181	-31879.756583	1651.521484	679.680603
17098.002181	-31879.756583	1649.914063	1107.578979
17098.002181	-31879.756583	1648.308594	975.097412
17098.002181	-31879.756583	1646.701172	895.544189
17098.002181	-31879.756583	1645.093750	1343.335327
17098.002181	-31879.756583	1643.486328	1294.846313
17098.002181	-31879.756583	1641.878906	1851.210693
17098.002181	-31879.756583	1640.269531	2062.238037
17098.002181	-31879.756583	1638.662109	2436.398438
17098.002181	-31879.756583	1637.052734	2770.002197
17098.002181	-31879.756583	1635.443359	3549.346191
17098.002181	-31879.756583	1633.833984	4278.688477
17098.002181	-31879.756583	1632.224609	5190.988770
17098.002181	-31879.756583	1630.613281	6748.765625
17098.002181	-31879.756583	1629.001953	8608.599609
17098.002181	-31879.756583	1627.392578	11111.721680
17098.002181	-31879.756583	1625.781250	15185.500977
17098.002181	-31879.756583	1624.167969	20428.726563
17098.002181	-31879.756583	1622.556641	26578.599609
17098.002181	-31879.756583	1620.945313	30993.980469
17098.002181	-31879.756583	1619.332031	32693.142578
17098.002181	-31879.756583	1617.718750	29821.103516
17098.002181	-31879.756583	1616.105469	24291.361328
17098.002181	-31879.756583	1614.492188	18663.359375
17098.002181	-31879.756583	1612.876953	14396.183594
17098.002181	-31879.756583	1611.263672	11092.583008
17098.002181	-31879.756583	1609.648438	8943.884766
17098.002181	-31879.756583	1608.033203	7977.236328
17098.002181	-31879.756583	1606.417969	7817.379883
17098.002181	-31879.756583	1604.802734	7365.273438
17098.002181	-31879.756583	1603.185547	7956.060547
17098.002181	-31879.756583	1601.570313	8331.754883
17098.002181	-31879.756583	1599.953125	9662.962891
17098.002181	-31879.756583	1598.335938	11267.351563
17098.002181	-31879.756583	1596.718750	13946.904297
17098.002181	-31879.756583	1595.099609	16960.740234
17098.002181	-31879.756583	1593.482422	20455.457031
17098.002181	-31879.756583	1591.863281	24333.400391
17098.002181	-31879.756583	1590.244141	27244.671875
17098.002181	-31879.756583	1588.625000	28004.160156
17098.002181	-31879.756583	1587.005859	27195.175781
17098.002181	-31879.756583	1585.384766	24977.677734
17098.002181	-31879.756583	1583.765625	22056.171875
17098.002181	-31879.756583	1582.144531	18799.773438
17098.002181	-31879.756583	1580.523438	15345.978516
17098.002181	-31879.756583	1578.902344	12664.796875
17098.002181	-31879.756583	1577.281250	10626.247070
17098.002181	-31879.756583	1575.658203	8775.222656
17098.002181	-31879.756583	1574.037109	7412.123047
17098.002181	-31879.756583	1572.414063	6256.219727
17098.002181	-31879.756583	1570.791016	5878.846191
17098.002181	-31879.756583	1569.167969	5263.125977
17098.002181	-31879.756583	1567.542969	5038.917480
17098.002181	-31879.756583	1565.919922	4808.852051
17098.002181	-31879.756583	1564.294922	4423.634277
17098.002181	-31879.756583	1562.669922	4443.447754
17098.002181	-31879.756583	1561.044922	4317.314941
17098.002181	-31879.756583	1559.419922	4239.119629
17098.002181	-31879.756583	1557.792969	4165.770996
17098.002181	-31879.756583	1556.167969	4134.182617
17098.002181	-31879.756583	1554.541016	4264.199219
17098.002181	-31879.756583	1552.914063	4160.802734
17098.002181	-31879.756583	1551.287109	4295.802246
17098.002181	-31879.756583	1549.658203	4638.321777
17098.002181	-31879.756583	1548.031250	5338.742188
17098.002181	-31879.756583	1546.402344	5371.204102
17098.002181	-31879.756583	1544.773438	5773.821777
17098.002181	-31879.756583	1543.144531	6108.975098
17098.002181	-31879.756583	1541.515625	6731.144531
17098.002181	-31879.756583	1539.886719	7414.646484
17098.002181	-31879.756583	1538.255859	7530.616211
17098.002181	-31879.756583	1536.625000	7970.320313
17098.002181	-31879.756583	1534.994141	8028.351563
17098.002181	-31879.756583	1533.363281	7731.011719
17098.002181	-31879.756583	1531.732422	7397.272461
17098.002181	-31879.756583	1530.099609	6982.719727
17098.002181	-31879.756583	1528.468750	6983.705566
17098.002181	-31879.756583	1526.835938	6122.756836
17098.002181	-31879.756583	1525.203125	5864.147461
17098.002181	-31879.756583	1523.570313	5847.764648
17098.002181	-31879.756583	1521.935547	5311.303223
17098.002181	-31879.756583	1520.302734	4708.016113
17098.002181	-31879.756583	1518.667969	4132.780762
17098.002181	-31879.756583	1517.033203	3561.116455
17098.002181	-31879.756583	1515.398438	3045.013184
17098.002181	-31879.756583	1513.763672	2374.993164
17098.002181	-31879.756583	1512.126953	2024.973145
17098.002181	-31879.756583	1510.492188	2013.088501
17098.002181	-31879.756583	1508.855469	1501.892212
17098.002181	-31879.756583	1507.218750	1647.996948
17098.002181	-31879.756583	1505.582031	1423.220215
17098.002181	-31879.756583	1503.943359	1488.905518
17098.002181	-31879.756583	1502.306641	1090.792236
17098.002181	-31879.756583	1500.667969	1340.211548
17098.002181	-31879.756583	1499.029297	1208.348633
17098.002181	-31879.756583	1497.390625	1514.633667
17098.002181	-31879.756583	1495.751953	1583.143433
17098.002181	-31879.756583	1494.111328	1503.996826
17098.002181	-31879.756583	1492.472656	1845.924561
17098.002181	-31879.756583	1490.832031	2076.722656
17098.002181	-31879.756583	1489.191406	2473.802246
17098.002181	-31879.756583	1487.550781	2610.472168
17098.002181	-31879.756583	1485.910156	2582.863770
17098.002181	-31879.756583	1484.267578	3190.581543
17098.002181	-31879.756583	1482.625000	3349.175781
17098.002181	-31879.756583	1480.982422	3568.873047
17098.002181	-31879.756583	1479.339844	3776.585693
17098.002181	-31879.756583	1477.697266	3663.447998
17098.002181	-31879.756583	1476.054688	3574.981201
17098.002181	-31879.756583	1474.410156	3626.762939
17098.002181	-31879.756583	1472.765625	3260.655029
17098.002181	-31879.756583	1471.121094	2828.100830
17098.002181	-31879.756583	1469.476563	2829.183838
17098.002181	-31879.756583	1467.832031	2637.567383
17098.002181	-31879.756583	1466.185547	2350.609863
17098.002181	-31879.756583	1464.541016	2071.648193
17098.002181	-31879.756583	1462.894531	2168.184814
17098.002181	-31879.756583	1461.248047	2073.662598
17098.002181	-31879.756583	1459.599609	2368.058105
17098.002181	-31879.756583	1457.953125	2488.074951
17098.002181	-31879.756583	1456.304688	2845.022217
17098.002181	-31879.756583	1454.656250	3277.941406
17098.002181	-31879.756583	1453.007813	3932.374268
17098.002181	-31879.756583	1451.359375	4615.613281
17098.002181	-31879.756583	1449.710938	5767.260254
17098.002181	-31879.756583	1448.060547	6297.287598
17098.002181	-31879.756583	1446.412109	6709.159668
17098.002181	-31879.756583	1444.761719	6824.203613
17098.002181	-31879.756583	1443.111328	6784.977539
17098.002181	-31879.756583	1441.458984	6458.333984
17098.002181	-31879.756583	1439.808594	5785.388184
17098.002181	-31879.756583	1438.156250	5700.313965
17098.002181	-31879.756583	1436.503906	5272.019043
17098.002181	-31879.756583	1434.851563	4747.345703
17098.002181	-31879.756583	1433.199219	4906.888184
17098.002181	-31879.756583	1431.546875	4446.568848
17098.002181	-31879.756583	1429.892578	3826.450928
17098.002181	-31879.756583	1428.240234	3430.578369
17098.002181	-31879.756583	1426.585938	2790.312256
17098.002181	-31879.756583	1424.931641	2659.796631
17098.002181	-31879.756583	1423.275391	2707.871094
17098.002181	-31879.756583	1421.621094	2087.070068
17098.002181	-31879.756583	1419.964844	1860.927734
17098.002181	-31879.756583	1418.308594	1825.358765
17098.002181	-31879.756583	1416.652344	1889.671631
17098.002181	-31879.756583	1414.996094	2142.834961
17098.002181	-31879.756583	1413.339844	2340.311035
17098.002181	-31879.756583	1411.681641	2643.548828
17098.002181	-31879.756583	1410.023438	2735.765625
17098.002181	-31879.756583	1408.365234	3202.099854
17098.002181	-31879.756583	1406.707031	3600.634766
17098.002181	-31879.756583	1405.048828	4372.987305
17098.002181	-31879.756583	1403.388672	5087.998047
17098.002181	-31879.756583	1401.730469	5974.639648
17098.002181	-31879.756583	1400.070313	7016.270020
17098.002181	-31879.756583	1398.410156	8161.568359
17098.002181	-31879.756583	1396.748047	9953.952148
17098.002181	-31879.756583	1395.087891	11655.447266
17098.002181	-31879.756583	1393.425781	13503.908203
17098.002181	-31879.756583	1391.765625	15252.460938
17098.002181	-31879.756583	1390.103516	15601.643555
17098.002181	-31879.756583	1388.439453	16546.408203
17098.002181	-31879.756583	1386.777344	16476.103516
17098.002181	-31879.756583	1385.115234	16654.050781
17098.002181	-31879.756583	1383.451172	16770.527344
17098.002181	-31879.756583	1381.787109	16669.291016
17098.002181	-31879.756583	1380.123047	17331.394531
17098.002181	-31879.756583	1378.457031	17289.060547
17098.002181	-31879.756583	1376.792969	17793.464844
17098.002181	-31879.756583	1375.126953	17815.980469
17098.002181	-31879.756583	1373.462891	17982.726563
17098.002181	-31879.756583	1371.794922	18035.589844
17098.002181	-31879.756583	1370.128906	18076.583984
17098.002181	-31879.756583	1368.462891	17346.804688
17098.002181	-31879.756583	1366.794922	17722.701172
17098.002181	-31879.756583	1365.126953	16815.277344
17098.002181	-31879.756583	1363.458984	16221.686523
17098.002181	-31879.756583	1361.791016	15306.329102
17098.002181	-31879.756583	1360.123047	14405.013672
17098.002181	-31879.756583	1358.453125	13332.020508
17098.002181	-31879.756583	1356.785156	12331.509766
17098.002181	-31879.756583	1355.115234	11419.952148
17098.002181	-31879.756583	1353.445313	11125.673828
17098.002181	-31879.756583	1351.773438	10324.349609
17098.002181	-31879.756583	1350.103516	9554.915039
17098.002181	-31879.756583	1348.431641	8972.975586
17098.002181	-31879.756583	1346.761719	8190.992676
17098.002181	-31879.756583	1345.087891	7402.060547
17098.002181	-31879.756583	1343.416016	6866.224121
17098.002181	-31879.756583	1341.744141	6901.697266
17098.002181	-31879.756583	1340.070313	6946.268555
17098.002181	-31879.756583	1338.396484	6766.848145
17098.002181	-31879.756583	1336.724609	6339.654297
17098.002181	-31879.756583	1335.048828	6289.128418
17098.002181	-31879.756583	1333.375000	5837.097168
17098.002181	-31879.756583	1331.699219	5609.296875
17098.002181	-31879.756583	1330.025391	4983.223145
17098.002181	-31879.756583	1328.349609	4276.984863
17098.002181	-31879.756583	1326.673828	3763.580811
17098.002181	-31879.756583	1324.996094	2995.504150
17098.002181	-31879.756583	1323.320313	2275.542480
17098.002181	-31879.756583	1321.642578	1943.590942
17098.002181	-31879.756583	1319.966797	1467.278687
17098.002181	-31879.756583	1318.287109	1421.933228
17098.002181	-31879.756583	1316.609375	1255.993774
17098.002181	-31879.756583	1314.931641	1200.416260
17098.002181	-31879.756583	1313.251953	1536.582642
17098.002181	-31879.756583	1311.572266	1659.783936
17098.002181	-31879.756583	1309.892578	2012.208374
17098.002181	-31879.756583	1308.212891	2535.668945
17098.002181	-31879.756583	1306.533203	3160.125244
17098.002181	-31879.756583	1304.851563	4107.158691
17098.002181	-31879.756583	1303.171875	4522.908691
17098.002181	-31879.756583	1301.490234	5038.165527
17098.002181	-31879.756583	1299.808594	5285.683594
17098.002181	-31879.756583	1298.125000	5424.678711
17098.002181	-31879.756583	1296.443359	5587.394531
17098.002181	-31879.756583	1294.759766	5267.330566
17098.002181	-31879.756583	1293.076172	4727.644531
17098.002181	-31879.756583	1291.392578	4480.729004
17098.002181	-31879.756583	1289.708984	3772.279297
17098.002181	-31879.756583	1288.023438	3404.062012
17098.002181	-31879.756583	1286.339844	2893.554443
17098.002181	-31879.756583	1284.654297	2166.726318
17098.002181	-31879.756583	1282.968750	1793.225708
17098.002181	-31879.756583	1281.283203	1394.694092
17098.002181	-31879.756583	1279.595703	1165.379639
17098.002181	-31879.756583	1277.910156	813.120667
17098.002181	-31879.756583	1276.222656	573.670288
17098.002181	-31879.756583	1274.535156	363.954041
17098.002181	-31879.756583	1272.847656	475.746307
17098.002181	-31879.756583	1271.158203	427.576416
17098.002181	-31879.756583	1269.470703	681.419739
17098.002181	-31879.756583	1267.781250	569.552856
17098.002181	-31879.756583	1266.091797	550.952209
17098.002181	-31879.756583	1264.402344	443.570068
17098.002181	-31879.756583	1262.712891	404.257141
17098.002181	-31879.756583	1261.021484	681.450928
17098.002181	-31879.756583	1259.332031	794.344116
17098.002181	-31879.756583	1257.640625	602.666199
17098.002181	-31879.756583	1255.949219	387.394043
17098.002181	-31879.756583	1254.255859	420.447540
17098.002181	-31879.756583	1252.564453	639.553040
17098.002181	-31879.756583	1250.871094	495.224945
17098.002181	-31879.756583	1249.177734	485.286133
17098.002181	-31879.756583	1247.484375	500.403992
17098.002181	-31879.756583	1245.791016	342.781067
17098.002181	-31879.756583	1244.097656	374.055573
17098.002181	-31879.756583	1242.402344	-38.774693
17098.002181	-31879.756583	1240.707031	67.713257
17098.002181	-31879.756583	1239.011719	-51.523949
17098.002181	-31879.756583	1237.316406	127.042625
17098.002181	-31879.756583	1235.621094	6.246636
17098.002181	-31879.756583	1233.923828	239.146255
17098.002181	-31879.756583	1232.226563	284.762695
17098.002181	-31879.756583	1230.529297	686.755920
17098.002181	-31879.756583	1228.832031	661.420654
17098.002181	-31879.756583	1227.134766	912.827148
17098.002181	-31879.756583	1225.435547	1010.980469
17098.002181	-31879.756583	1223.736328	1317.994385
17098.002181	-31879.756583	1222.039063	1086.240723
17098.002181	-31879.756583	1220.337891	1220.851929
17098.002181	-31879.756583	1218.638672	1077.324707
17098.002181	-31879.756583	1216.939453	897.017639
17098.002181	-31879.756583	1215.238281	982.810608
17098.002181	-31879.756583	1213.537109	1125.794678
17098.002181	-31879.756583	1211.835938	821.923279
17098.002181	-31879.756583	1210.134766	1095.444824
17098.002181	-31879.756583	1208.431641	866.459351
17098.002181	-31879.756583	1206.728516	1205.763794
17098.002181	-31879.756583	1205.027344	1267.319580
17098.002181	-31879.756583	1203.324219	1371.340210
17098.002181	-31879.756583	1201.619141	2094.505615
17098.002181	-31879.756583	1199.916016	2952.197510
17098.002181	-31879.756583	1198.210938	3849.031006
17098.002181	-31879.756583	1196.505859	5136.907715
17098.002181	-31879.756583	1194.800781	7388.830566
17098.002181	-31879.756583	1193.095703	9465.206055
17098.002181	-31879.756583	1191.390625	12003.644531
17098.002181	-31879.756583	1189.683594	13682.273438
17098.002181	-31879.756583	1187.976563	15537.289063
17098.002181	-31879.756583	1186.269531	17177.542969
17098.002181	-31879.756583	1184.562500	18125.853516
17098.002181	-31879.756583	1182.855469	19280.029297
17098.002181	-31879.756583	1181.146484	20319.443359
17098.002181	-31879.756583	1179.437500	20944.183594
17098.002181	-31879.756583	1177.728516	20646.916016
17098.002181	-31879.756583	1176.019531	21048.757813
17098.002181	-31879.756583	1174.310547	21027.720703
17098.002181	-31879.756583	1172.599609	19907.244141
17098.002181	-31879.756583	1170.888672	18138.208984
17098.002181	-31879.756583	1169.177734	16140.426758
17098.002181	-31879.756583	1167.466797	14029.467773
17098.002181	-31879.756583	1165.755859	11501.597656
17098.002181	-31879.756583	1164.042969	9469.789063
17098.002181	-31879.756583	1162.332031	7524.880371
17098.002181	-31879.756583	1160.619141	6371.851563
17098.002181	-31879.756583	1158.904297	5203.186035
17098.002181	-31879.756583	1157.191406	4692.888672
17098.002181	-31879.756583	1155.478516	3979.948975
17098.002181	-31879.756583	1153.763672	3531.178467
17098.002181	-31879.756583	1152.048828	3401.782471
17098.002181	-31879.756583	1150.333984	3208.185059
17098.002181	-31879.756583	1148.617188	3119.500732
17098.002181	-31879.756583	1146.902344	3054.023926
17098.002181	-31879.756583	1145.185547	2820.956543
17098.002181	-31879.756583	1143.468750	3020.405273
17098.002181	-31879.756583	1141.751953	2988.135742
17098.002181	-31879.756583	1140.035156	3016.898682
17098.002181	-31879.756583	1138.316406	2758.839355
17098.002181	-31879.756583	1136.599609	2684.090332
17098.002181	-31879.756583	1134.880859	2618.001953
17098.002181	-31879.756583	1133.162109	2618.723389
17098.002181	-31879.756583	1131.441406	2241.290039
17098.002181	-31879.756583	1129.722656	2297.101563
17098.002181	-31879.756583	1128.001953	2332.438965
17098.002181	-31879.756583	1126.281250	2431.578857
17098.002181	-31879.756583	1124.560547	2510.219482
17098.002181	-31879.756583	1122.839844	2585.803223
17098.002181	-31879.756583	1121.117188	2622.050293
17098.002181	-31879.756583	1119.396484	2515.874268
17098.002181	-31879.756583	1117.673828	2634.625244
17098.002181	-31879.756583	1115.951172	2542.797363
17098.002181	-31879.756583	1114.228516	2214.419678
17098.002181	-31879.756583	1112.503906	1973.125854
17098.002181	-31879.756583	1110.779297	1573.766479
17098.002181	-31879.756583	1109.056641	1225.204102
17098.002181	-31879.756583	1107.330078	1394.193970
17098.002181	-31879.756583	1105.605469	810.870178
17098.002181	-31879.756583	1103.880859	568.181458
17098.002181	-31879.756583	1102.154297	424.015350
17098.002181	-31879.756583	1100.427734	463.733063
17098.002181	-31879.756583	1098.701172	300.630981
17098.002181	-31879.756583	1096.974609	143.294678
17098.002181	-31879.756583	1095.246094	-31.417866
17098.002181	-31879.756583	1093.519531	119.385536
17098.002181	-31879.756583	1091.791016	16.895861
17098.002181	-31879.756583	1090.062500	73.443932
17098.002181	-31879.756583	1088.333984	213.738510
17098.002181	-31879.756583	1086.603516	-152.052170
17098.002181	-31879.756583	1084.873047	-108.760933
17098.002181	-31879.756583	1083.144531	-85.819740
17098.002181	-31879.756583	1081.412109	-135.169403
17098.002181	-31879.756583	1079.681641	-298.691498
17098.002181	-31879.756583	1077.951172	-50.698299
17098.002181	-31879.756583	1076.218750	55.647934
17098.002181	-31879.756583	1074.486328	-122.459412
17098.002181	-31879.756583	1072.753906	-166.363998
17098.002181	-31879.756583	1071.021484	14.731171
17098.002181	-31879.756583	1069.287109	24.054228
17098.002181	-31879.756583	1067.554688	282.752747
17098.002181	-31879.756583	1065.820313	55.445007
17098.002181	-31879.756583	1064.085938	51.582870
17098.002181	-31879.756583	1062.351563	102.418541
17098.002181	-31879.756583	1060.615234	215.136963
17098.002181	-31879.756583	1058.878906	59.840725
17098.002181	-31879.756583	1057.144531	-104.095795
17098.002181	-31879.756583	1055.406250	60.271961
17098.002181	-31879.756583	1053.669922	-31.710808
17098.002181	-31879.756583	1051.933594	-48.868965
17098.002181	-31879.756583	1050.195313	10.200931
17098.002181	-31879.756583	1048.457031	-263.065979
17098.002181	-31879.756583	1046.718750	145.389328
17098.002181	-31879.756583	1044.980469	135.241135
17098.002181	-31879.756583	1043.240234	-27.292820
17098.002181	-31879.756583	1041.501953	32.949001
17098.002181	-31879.756583	1039.761719	58.663368
17098.002181	-31879.756583	1038.021484	148.975266
17098.002181	-31879.756583	1036.279297	66.899246
17098.002181	-31879.756583	1034.539063	-38.148930
17098.002181	-31879.756583	1032.796875	119.531189
17098.002181	-31879.756583	1031.054688	0.138987
17098.002181	-31879.756583	1029.312500	31.438684
17098.002181	-31879.756583	1027.570313	62.710121
17098.002181	-31879.756583	1025.826172	207.266571
17098.002181	-31879.756583	1024.083984	189.711624
17098.002181	-31879.756583	1022.339844	348.491608
17098.002181	-31879.756583	1020.593750	402.587494
17098.002181	-31879.756583	1018.849609	321.954559
17098.002181	-31879.756583	1017.105469	410.396240
17098.002181	-31879.756583	1015.359375	185.163330
17098.002181	-31879.756583	1013.613281	426.828430
17098.002181	-31879.756583	1011.867188	314.800293
17098.002181	-31879.756583	1010.119141	466.191010
17098.002181	-31879.756583	1008.373047	239.756561
17098.002181	-31879.756583	1006.625000	454.068207
17098.002181	-31879.756583	1004.876953	745.532532
17098.002181	-31879.756583	1003.128906	896.753601
17098.002181	-31879.756583	1001.380859	1306.682983
17098.002181	-31879.756583	999.630859	1224.800049
17098.002181	-31879.756583	997.880859	1530.222290
17098.002181	-31879.756583	996.130859	1569.815186
17098.002181	-31879.756583	994.380859	1773.673096
17098.002181	-31879.756583	992.630859	1730.439087
17098.002181	-31879.756583	990.878906	2031.332642
17098.002181	-31879.756583	989.126953	2066.650635
17098.002181	-31879.756583	987.375000	1789.487305
17098.002181	-31879.756583	985.623047	1971.876099
17098.002181	-31879.756583	983.871094	2175.624023
17098.002181	-31879.756583	982.117188	2049.935303
17098.002181	-31879.756583	980.363281	2305.008789
17098.002181	-31879.756583	978.609375	2280.653320
17098.002181	-31879.756583	976.855469	2500.042969
17098.002181	-31879.756583	975.101563	2451.546875
17098.002181	-31879.756583	973.345703	2334.777832
17098.002181	-31879.756583	971.589844	2621.127686
17098.002181	-31879.756583	969.833984	2675.346191
17098.002181	-31879.756583	968.078125	2416.459229
17098.002181	-31879.756583	966.320313	2275.889893
17098.002181	-31879.756583	964.564453	2373.037842
17098.002181	-31879.756583	962.806641	2593.978271
17098.002181	-31879.756583	961.048828	2275.920410
17098.002181	-31879.756583	959.289063	2458.561523
17098.002181	-31879.756583	957.531250	2049.862793
17098.002181	-31879.756583	955.771484	2428.743652
17098.002181	-31879.756583	954.011719	2183.807617
17098.002181	-31879.756583	952.251953	2186.228271
17098.002181	-31879.756583	950.492188	2361.989746
17098.002181	-31879.756583	948.730469	2189.919678
17098.002181	-31879.756583	946.970703	2966.215088
17098.002181	-31879.756583	945.208984	3686.915039
17098.002181	-31879.756583	943.447266	4537.909180
17098.002181	-31879.756583	941.683594	5004.205566
17098.002181	-31879.756583	939.921875	5110.148438
17098.002181	-31879.756583	938.158203	4614.984375
17098.002181	-31879.756583	936.394531	4348.368164
17098.002181	-31879.756583	934.630859	3519.344482
17098.002181	-31879.756583	932.865234	2875.012695
17098.002181	-31879.756583	931.101563	2656.026611
17098.002181	-31879.756583	929.335938	2673.770020
17098.002181	-31879.756583	927.570313	2749.660889
17098.002181	-31879.756583	925.804688	2979.921387
17098.002181	-31879.756583	924.037109	3909.328857
17098.002181	-31879.756583	922.271484	5901.005859
17098.002181	-31879.756583	920.503906	9375.802734
17098.002181	-31879.756583	918.736328	14500.978516
17098.002181	-31879.756583	916.966797	19806.318359
17098.002181	-31879.756583	915.199219	22498.349609
17098.002181	-31879.756583	913.429688	22197.322266
17098.002181	-31879.756583	911.660156	19744.589844
17098.002181	-31879.756583	909.890625	16146.033203
17098.002181	-31879.756583	908.121094	11446.222656
17098.002181	-31879.756583	906.349609	7929.138184
17098.002181	-31879.756583	904.580078	5167.596680
17098.002181	-31879.756583	902.808594	3543.589355
17098.002181	-31879.756583	901.037109	2501.782959
17098.002181	-31879.756583	899.263672	1714.513306
17098.002181	-31879.756583	897.492188	1087.072266
17098.002181	-31879.756583	895.718750	825.253784
17098.002181	-31879.756583	893.945313	673.626587
17098.002181	-31879.756583	892.171875	641.981445
17098.002181	-31879.756583	890.396484	435.759277
17098.002181	-31879.756583	888.623047	257.901489
17098.002181	-31879.756583	886.847656	88.708267
17098.002181	-31879.756583	885.072266	328.048340
17098.002181	-31879.756583	883.296875	214.042175
17098.002181	-31879.756583	881.519531	94.591957
17098.002181	-31879.756583	879.742188	82.245461
17098.002181	-31879.756583	877.966797	33.417145
17098.002181	-31879.756583	876.187500	14.297778
17098.002181	-31879.756583	874.410156	-87.686134
17098.002181	-31879.756583	872.632813	-200.763428
17098.002181	-31879.756583	870.853516	2.571843
17098.002181	-31879.756583	869.074219	-72.303581
17098.002181	-31879.756583	867.294922	-187.779648
17098.002181	-31879.756583	865.515625	-17.986572
17098.002181	-31879.756583	863.734375	-81.242554
17098.002181	-31879.756583	861.953125	88.668297
17098.002181	-31879.756583	860.171875	77.545197
17098.002181	-31879.756583	858.390625	86.169708
17098.002181	-31879.756583	856.609375	136.969833
17098.002181	-31879.756583	854.826172	377.205627
17098.002181	-31879.756583	853.042969	408.492462
17098.002181	-31879.756583	851.259766	362.748383
17098.002181	-31879.756583	849.476563	737.584656
17098.002181	-31879.756583	847.691406	787.267212
17098.002181	-31879.756583	845.908203	1034.517700
17098.002181	-31879.756583	844.123047	1004.438538
17098.002181	-31879.756583	842.337891	1271.310059
17098.002181	-31879.756583	840.550781	1582.956787
17098.002181	-31879.756583	838.765625	1529.208984
17098.002181	-31879.756583	836.978516	1698.067505
17098.002181	-31879.756583	835.191406	1990.029175
17098.002181	-31879.756583	833.404297	2150.446777
17098.002181	-31879.756583	831.617188	2133.268799
17098.002181	-31879.756583	829.828125	2176.298340
17098.002181	-31879.756583	828.039063	2434.607666
17098.002181	-31879.756583	826.250000	2569.885010
17098.002181	-31879.756583	824.460938	2657.655029
17098.002181	-31879.756583	822.669922	2653.273438
17098.002181	-31879.756583	820.880859	3034.318604
17098.002181	-31879.756583	819.089844	3468.301270
17098.002181	-31879.756583	817.298828	4149.166504
17098.002181	-31879.756583	815.507813	4916.266602
17098.002181	-31879.756583	813.714844	5627.263672
17098.002181	-31879.756583	811.921875	6894.462891
17098.002181	-31879.756583	810.128906	8204.324219
17098.002181	-31879.756583	808.335938	8621.378906
17098.002181	-31879.756583	806.542969	9038.256836
17098.002181	-31879.756583	804.748047	9746.210938
17098.002181	-31879.756583	802.953125	9598.469727
17098.002181	-31879.756583	801.158203	9035.753906
17098.002181	-31879.756583	799.363281	7928.848633
17098.002181	-31879.756583	797.568359	7068.870117
17098.002181	-31879.756583	795.771484	6347.105957
17098.002181	-31879.756583	793.974609	4902.092285
17098.002181	-31879.756583	792.177734	3951.609619
17098.002181	-31879.756583	790.380859	3090.569092
17098.002181	-31879.756583	788.582031	2363.427490
17098.002181	-31879.756583	786.785156	1764.476440
17098.002181	-31879.756583	784.986328	1471.573975
17098.002181	-31879.756583	783.185547	1207.981445
17098.002181	-31879.756583	781.386719	1098.654785
17098.002181	-31879.756583	779.585938	1107.420288
17098.002181	-31879.756583	777.787109	1542.406128
17098.002181	-31879.756583	775.986328	1476.006714
17098.002181	-31879.756583	774.183594	1687.192261
17098.002181	-31879.756583	772.382813	2303.375977
17098.002181	-31879.756583	770.580078	2458.658936
17098.002181	-31879.756583	768.777344	2730.307129
17098.002181	-31879.756583	766.974609	2624.595459
17098.002181	-31879.756583	765.171875	2725.416016
17098.002181	-31879.756583	763.367188	3187.868164
17098.002181	-31879.756583	761.564453	4456.444336
17098.002181	-31879.756583	759.759766	4580.084473
17098.002181	-31879.756583	757.953125	3321.367188
17098.002181	-31879.756583	756.148438	2237.588867
17098.002181	-31879.756583	754.341797	2033.297485
17098.002181	-31879.756583	752.537109	1733.474854
17098.002181	-31879.756583	750.730469	2031.458130
17098.002181	-31879.756583	748.921875	2348.574463
17098.002181	-31879.756583	747.115234	2428.897705
17098.002181	-31879.756583	745.306641	2451.002930
17098.002181	-31879.756583	743.498047	2250.399414
17098.002181	-31879.756583	741.689453	1347.664673
17098.002181	-31879.756583	739.880859	959.221924
17098.002181	-31879.756583	738.070313	1151.036133
17098.002181	-31879.756583	736.259766	1772.130981
17098.002181	-31879.756583	734.449219	3357.939697
17098.002181	-31879.756583	732.638672	5079.506348
17098.002181	-31879.756583	730.828125	6412.288086
17098.002181	-31879.756583	729.015625	7043.354004
17098.002181	-31879.756583	727.203125	7638.084473
17098.002181	-31879.756583	725.390625	7924.807617
17098.002181	-31879.756583	723.578125	6722.084961
17098.002181	-31879.756583	721.763672	4546.538574
17098.002181	-31879.756583	719.949219	2578.553223
17098.002181	-31879.756583	718.134766	1601.974976
17098.002181	-31879.756583	716.320313	700.045471
17098.002181	-31879.756583	714.505859	460.770569
17098.002181	-31879.756583	712.689453	363.238831
17098.002181	-31879.756583	710.873047	169.182480
17098.002181	-31879.756583	709.056641	-40.134747
17098.002181	-31879.756583	707.240234	26.984562
17098.002181	-31879.756583	705.421875	-12.054321
17098.002181	-31879.756583	703.605469	-19.686464
17098.002181	-31879.756583	701.787109	-35.778397
17098.002181	-31879.756583	699.966797	-166.173203
17098.002181	-31879.756583	698.148438	-54.886238
17098.002181	-31879.756583	696.328125	-132.109528
17098.002181	-31879.756583	694.509766	142.093979
17098.002181	-31879.756583	692.687500	-96.293907
17098.002181	-31879.756583	690.867188	1.545540
17098.002181	-31879.756583	689.046875	27.706280
17098.002181	-31879.756583	687.224609	-35.588856
17098.002181	-31879.756583	685.402344	-4.446678
17098.002181	-31879.756583	683.580078	-2.387340
17098.002181	-31879.756583	681.755859	58.386650
17098.002181	-31879.756583	679.933594	-116.967491
17098.002181	-31879.756583	678.109375	14.542166
17098.002181	-31879.756583	676.285156	-74.914757
17098.002181	-31879.756583	674.460938	6.652925
17098.002181	-31879.756583	672.634766	182.427597
17098.002181	-31879.756583	670.810547	350.980225
17098.002181	-31879.756583	668.984375	683.475220
17098.002181	-31879.756583	667.156250	758.211060
17098.002181	-31879.756583	665.330078	797.038208
17098.002181	-31879.756583	663.503906	561.938110
17098.002181	-31879.756583	661.675781	239.133072
17098.002181	-31879.756583	659.847656	140.457870
17098.002181	-31879.756583	658.017578	96.234200
17098.002181	-31879.756583	656.189453	65.401474
17098.002181	-31879.756583	654.359375	-88.683319
17098.002181	-31879.756583	652.529297	183.257843
17098.002181	-31879.756583	650.699219	196.634171
17098.002181	-31879.756583	648.869141	146.899933
17098.002181	-31879.756583	647.037109	140.590790
17098.002181	-31879.756583	645.205078	273.210419
17098.002181	-31879.756583	643.373047	477.797607
17098.002181	-31879.756583	641.541016	399.603271
17098.002181	-31879.756583	639.708984	592.572815
17098.002181	-31879.756583	637.875000	591.541138
17098.002181	-31879.756583	636.041016	659.748718
17098.002181	-31879.756583	634.207031	737.177795
17098.002181	-31879.756583	632.371094	821.104248
17098.002181	-31879.756583	630.537109	393.850861
17098.002181	-31879.756583	628.701172	609.366272
17098.002181	-31879.756583	626.865234	676.082886
17098.002181	-31879.756583	625.029297	753.383423
17098.002181	-31879.756583	623.191406	563.625427
17098.002181	-31879.756583	621.353516	762.835693
17098.002181	-31879.756583	619.515625	716.824219
17098.002181	-31879.756583	617.677734	726.330933
17098.002181	-31879.756583	615.839844	806.277588
17098.002181	-31879.756583	614.000000	607.262695
17098.002181	-31879.756583	612.160156	541.275513
17098.002181	-31879.756583	610.320313	498.171234
17098.002181	-31879.756583	608.480469	714.295288
17098.002181	-31879.756583	606.640625	822.791321
17098.002181	-31879.756583	604.798828	850.895386
17098.002181	-31879.756583	602.957031	561.121765
17098.002181	-31879.756583	601.115234	421.900848
17098.002181	-31879.756583	599.271484	221.474594
17098.002181	-31879.756583	597.429688	328.845520
17098.002181	-31879.756583	595.585938	463.081757
17098.002181	-31879.756583	593.742188	437.069977
17098.002181	-31879.756583	591.896484	732.125549
17098.002181	-31879.756583	590.052734	704.329773
17098.002181	-31879.756583	588.207031	967.654358
17098.002181	-31879.756583	586.361328	1024.798340
17098.002181	-31879.756583	584.515625	1286.232544
17098.002181	-31879.756583	582.667969	1646.214844
17098.002181	-31879.756583	580.822266	1842.103027
17098.002181	-31879.756583	578.974609	1976.862427
17098.002181	-31879.756583	577.126953	2284.595459
17098.002181	-31879.756583	575.277344	2422.986572
17098.002181	-31879.756583	573.429688	2728.879639
17098.002181	-31879.756583	571.580078	3199.450928
17098.002181	-31879.756583	569.730469	3229.087891
17098.002181	-31879.756583	567.880859	3641.032471
17098.002181	-31879.756583	566.029297	3685.249268
17098.002181	-31879.756583	564.177734	4121.057617
17098.002181	-31879.756583	562.326172	4219.032715
17098.002181	-31879.756583	560.474609	4225.119141
17098.002181	-31879.756583	558.623047	3619.782959
17098.002181	-31879.756583	556.769531	2912.166748
17098.002181	-31879.756583	554.916016	2063.234619
17098.002181	-31879.756583	553.062500	1673.261475
17098.002181	-31879.756583	551.208984	1278.097290
17098.002181	-31879.756583	549.353516	1354.955078
17098.002181	-31879.756583	547.500000	1232.359131
17098.002181	-31879.756583	545.644531	1260.776611
17098.002181	-31879.756583	543.787109	1027.912598
17098.002181	-31879.756583	541.931641	1199.259644
17098.002181	-31879.756583	540.074219	1347.723145
17098.002181	-31879.756583	538.216797	1439.682495
17098.002181	-31879.756583	536.359375	1599.002441
17098.002181	-31879.756583	534.501953	1822.957275
17098.002181	-31879.756583	532.642578	2532.531982
17098.002181	-31879.756583	530.783203	2732.247314
17098.002181	-31879.756583	528.923828	3449.656494
17098.002181	-31879.756583	527.064453	3709.898438
17098.002181	-31879.756583	525.205078	3948.713379
17098.002181	-31879.756583	523.343750	3603.204590
17098.002181	-31879.756583	521.482422	3374.947998
17098.002181	-31879.756583	519.621094	2750.901367
17098.002181	-31879.756583	517.757813	2285.832764
17098.002181	-31879.756583	515.896484	1787.703857
17098.002181	-31879.756583	514.033203	1291.444580
17098.002181	-31879.756583	512.169922	1006.350220
17098.002181	-31879.756583	510.304688	1002.028870
17098.002181	-31879.756583	508.441406	759.357849
17098.002181	-31879.756583	506.576172	451.463226
17098.002181	-31879.756583	504.710938	134.695557
17098.002181	-31879.756583	502.845703	-50.227623
17098.002181	-31879.756583	500.978516	13.159263
17098.002181	-31879.756583	499.111328	-61.024071
17098.002181	-31879.756583	497.244141	-154.836578
17098.002181	-31879.756583	495.376953	-262.893951
17098.002181	-31879.756583	493.509766	-76.018082
17098.002181	-31879.756583	491.640625	92.503517
17098.002181	-31879.756583	489.771484	52.743881
17098.002181	-31879.756583	487.902344	79.027176
17098.002181	-31879.756583	486.033203	92.432251
17098.002181	-31879.756583	484.162109	68.929832
17098.002181	-31879.756583	482.291016	202.330383
17098.002181	-31879.756583	480.419922	300.137878
17098.002181	-31879.756583	478.548828	172.718277
17098.002181	-31879.756583	476.677734	406.493896
17098.002181	-31879.756583	474.804688	258.914581
17098.002181	-31879.756583	472.931641	600.528625
17098.002181	-31879.756583	471.058594	318.066040
17098.002181	-31879.756583	469.183594	664.742004
17098.002181	-31879.756583	467.310547	966.519714
17098.002181	-31879.756583	465.435547	1116.788574
17098.002181	-31879.756583	463.560547	1264.969482
17098.002181	-31879.756583	461.683594	1421.750488
17098.002181	-31879.756583	459.808594	1632.410522
17098.002181	-31879.756583	457.931641	1742.415649
17098.002181	-31879.756583	456.054688	1893.009155
17098.002181	-31879.756583	454.175781	2162.747314
17098.002181	-31879.756583	452.298828	2536.870361
17098.002181	-31879.756583	450.419922	3196.346680
17098.002181	-31879.756583	448.541016	3986.610840
17098.002181	-31879.756583	446.662109	5313.295410
17098.002181	-31879.756583	444.781250	6902.068848
17098.002181	-31879.756583	442.902344	8188.952148
17098.002181	-31879.756583	441.021484	8439.116211
17098.002181	-31879.756583	439.140625	7885.865723
17098.002181	-31879.756583	437.257813	6165.763672
17098.002181	-31879.756583	435.376953	4752.706055
17098.002181	-31879.756583	433.494141	3682.373047
17098.002181	-31879.756583	431.611328	3339.509033
17098.002181	-31879.756583	429.726563	3796.613525
17098.002181	-31879.756583	427.843750	4510.290527
17098.002181	-31879.756583	425.958984	5565.310059
17098.002181	-31879.756583	424.074219	6552.865723
17098.002181	-31879.756583	422.189453	7110.983398
17098.002181	-31879.756583	420.302734	7315.562012
17098.002181	-31879.756583	418.416016	6583.641602
17098.002181	-31879.756583	416.529297	5667.213379
17098.002181	-31879.756583	414.642578	4421.998047
17098.002181	-31879.756583	412.755859	3298.526611
17098.002181	-31879.756583	410.867188	2429.139893
17098.002181	-31879.756583	408.978516	1867.873901
17098.002181	-31879.756583	407.089844	1247.878784
17098.002181	-31879.756583	405.201172	865.561218
17098.002181	-31879.756583	403.310547	723.402466
17098.002181	-31879.756583	401.419922	482.603027
17098.002181	-31879.756583	399.529297	83.707909
17098.002181	-31879.756583	397.638672	167.902588
17098.002181	-31879.756583	395.746094	52.922783
17098.002181	-31879.756583	393.853516	-16.732891
17098.002181	-31879.756583	391.960938	-53.025284
17098.002181	-31879.756583	390.068359	-21.684187
17098.002181	-31879.756583	388.175781	103.602150
17098.002181	-31879.756583	386.281250	-256.690216
17098.002181	-31879.756583	384.386719	32.566143
17098.002181	-31879.756583	382.492188	11.727882
17098.002181	-31879.756583	380.595703	-24.866774
17098.002181	-31879.756583	378.699219	79.615707
17098.002181	-31879.756583	376.802734	303.917969
17098.002181	-31879.756583	374.906250	194.502304
17098.002181	-31879.756583	373.009766	215.364197
17098.002181	-31879.756583	371.111328	401.946869
17098.002181	-31879.756583	369.212891	416.857880
17098.002181	-31879.756583	367.314453	381.283936
17098.002181	-31879.756583	365.416016	582.152527
17098.002181	-31879.756583	363.515625	871.845093
17098.002181	-31879.756583	361.615234	939.658936
17098.002181	-31879.756583	359.714844	1357.868774
17098.002181	-31879.756583	357.814453	1728.966309
17098.002181	-31879.756583	355.912109	1897.776123
17098.002181	-31879.756583	354.011719	2324.335938
17098.002181	-31879.756583	352.109375	2635.198730
17098.002181	-31879.756583	350.205078	2952.519775
17098.002181	-31879.756583	348.302734	3301.074951
17098.002181	-31879.756583	346.398438	3598.046631
17098.002181	-31879.756583	344.494141	3911.585938
17098.002181	-31879.756583	342.589844	3976.425049
17098.002181	-31879.756583	340.683594	3951.402344
17098.002181	-31879.756583	338.779297	4223.405273
17098.002181	-31879.756583	336.873047	4083.872070
17098.002181	-31879.756583	334.966797	4035.134521
17098.002181	-31879.756583	333.058594	3648.312012
17098.002181	-31879.756583	331.150391	3418.876953
17098.002181	-31879.756583	329.244141	3362.266113
17098.002181	-31879.756583	327.333984	3251.567871
17098.002181	-31879.756583	325.425781	2756.608887
17098.002181	-31879.756583	323.515625	2780.897949
17098.002181	-31879.756583	321.607422	2363.081787
17098.002181	-31879.756583	319.695313	2228.249023
17098.002181	-31879.756583	317.785156	1884.085449
17098.002181	-31879.756583	315.875000	1906.046021
17098.002181	-31879.756583	313.962891	1638.463013
17098.002181	-31879.756583	312.050781	1396.415527
17098.002181	-31879.756583	310.136719	1366.521118
17098.002181	-31879.756583	308.224609	1187.797119
17098.002181	-31879.756583	306.310547	900.520874
17098.002181	-31879.756583	304.396484	708.300659
17098.002181	-31879.756583	302.482422	585.992493
17098.002181	-31879.756583	300.566406	627.194885
17098.002181	-31879.756583	298.650391	464.822113
17098.002181	-31879.756583	296.734375	233.128098
17098.002181	-31879.756583	294.818359	140.579041
17098.002181	-31879.756583	292.902344	73.303490
17098.002181	-31879.756583	290.984375	-199.915833
